ecg
7.007861211642136823e-01
4.949604263825074235e-01
8.549956914370226979e-02
-2.395675675061585130e-01
-3.668836051151846966e-01
-3.324719133994478715e-01
-2.470866173276188571e-01
-1.863382172240359846e-01
-1.637232536406328098e-01
-1.546425389127210337e-01
-1.483478150808936746e-01
-1.399510552914822459e-01
-1.287076528334940573e-01
-1.141496841230385667e-01
-9.568429496942003343e-02
-7.306977917353273122e-02
-4.636987295951553595e-02
-1.586863403281104853e-02
1.812675039452010806e-02
5.348675288641595305e-02
8.790857183275414821e-02
1.193085461939176334e-01
1.458554696429858744e-01
1.659385524213309315e-01
1.781558944379975917e-01
1.813144857602723703e-01
1.742539477280950766e-01
1.565890857600489572e-01
1.309520125083629416e-01
1.000032431902789232e-01
6.609480455952145006e-02
3.126063176830945478e-02
-2.817809977036377263e-03
-3.478012764299340948e-02
-6.357441766954421980e-02
-8.845726496018913032e-02
-1.089937428819464510e-01
-1.250549262072866152e-01
-1.368719427874107997e-01
-1.451607318611458919e-01
-1.506523457602622629e-01
-1.539905127964585341e-01
-1.557028435016986900e-01
-1.562256150477721595e-01
-1.559150165687331335e-01
-1.550471545256493222e-01
-1.538180527066014824e-01
-1.523436522266834181e-01
-1.505899972699093758e-01
-1.485796326149043112e-01
-1.464725185532478879e-01
-1.443713356532048686e-01
-1.423474023207315919e-01
-1.404174383087907763e-01
-1.385329911696439320e-01
-1.365804326412350389e-01
-1.343809586471896300e-01
-1.316905892968157077e-01
-1.282001688851028276e-01
-1.235595481721897954e-01
-1.171469680735851837e-01
-1.068252123925400032e-01
-9.091427030785381724e-02
-6.867231205350013412e-02
-4.030936234561837556e-02
-6.984661819241063524e-03
2.918756031316949162e-02
6.187022756580379257e-02
8.492594829558113012e-02
9.458420745081994041e-02
8.944136657123805123e-02
7.045200216023043971e-02
4.080999516511824715e-02
6.301093719675479599e-03
-2.735803909516520971e-02
-5.628043987689144989e-02
-7.842423807379494960e-02
-9.359265598497186478e-02
-1.033078238010149696e-01
-1.127762840213161755e-01
-1.327902959173146991e-01
-1.765103520862624786e-01
-2.255210298574810701e-01
-2.131225435423314274e-01
-5.382044568257973727e-02
2.821320963819182182e-01
6.461853360189582229e-01
7.360789507953714450e-01
4.566890891148198128e-01
4.403238680392551618e-02
-2.269625043625703442e-01
-2.923045100504743643e-01
-2.271700304245096447e-01
-1.458415007468782110e-01
-1.024348523346941126e-01
-8.625012538800284900e-02
-7.948425178495611976e-02
-7.230431972639694838e-02
-6.223758412001965945e-02
-4.940985590060686244e-02
-3.291209024605756817e-02
-1.234199568305912112e-02
1.244766653107784449e-02
4.192858721227500640e-02
7.555319443022612269e-02
1.109094543922065773e-01
1.457611031596253159e-01
1.780763426700799346e-01
2.060278407373551668e-01
2.279927310514239802e-01
2.425526131784473127e-01
2.484914499584489900e-01
2.447837530114654048e-01
2.306105357811563950e-01
2.073278261655707722e-01
1.777468367205046196e-01
1.443796944717283259e-01
1.094165423240722190e-01
7.472553906142760660e-02
4.185285934674386199e-02
1.202269372203265858e-02
-1.386057422883297391e-02
-3.519850331949937738e-02
-5.175054640097633690e-02
-6.408819475205045080e-02
-7.297161009585219349e-02
-7.908319704167408870e-02
-8.302760308497068864e-02
-8.533171860735837277e-02
-8.644467687661590294e-02
-8.673785404668382659e-02
-8.650542409526562615e-02
-8.596784421922722130e-02
-8.526960179268043560e-02
-8.447743501297670654e-02
-8.358211711383047027e-02
-8.259252310872976233e-02
-8.159313250732300182e-02
-8.062698266922155299e-02
-7.968528895699902859e-02
-7.870744473619069315e-02
-7.758029867357377207e-02
-7.613289436711298541e-02
-7.416324982289936030e-02
-7.137090818802814540e-02
-6.635423445292648603e-02
-5.766948252150421589e-02
-4.409381252401653462e-02
-2.462529081706387596e-02
1.517110016408267656e-03
3.495279910059455319e-02
7.158695532879394419e-02
1.052399811166168653e-01
1.308790269065214784e-01
1.446451133843224268e-01
1.438532624339283195e-01
1.272140001882741955e-01
9.840727817965976010e-02
6.404991939572322879e-02
2.946900860411857254e-02
-1.438521827467675873e-03
-2.619487956131041559e-02
-4.055332605423814241e-02
-5.090864710605706722e-02
-6.979545921038921019e-02
-1.024596133561297417e-01
-1.468043349416276455e-01
-1.935555842655279080e-01
-1.802071618489254901e-01
1.178650058660553508e-02
3.663151485646347627e-01
7.032035323588636810e-01
7.268190318664384808e-01
3.925966103789972905e-01
-5.228455028935870968e-03
-2.383488231692777737e-01
-2.712047742344156909e-01
-1.947987154600502591e-01
-1.170411456507454567e-01
-7.942758652920325901e-02
-6.562535264023559856e-02
-5.952543479867322684e-02
-5.276589729368359044e-02
-4.372052449518651351e-02
-3.198284261477526980e-02
-1.671331662706118659e-02
2.545413315697714340e-03
2.602447226190535493e-02
5.376889934064674192e-02
8.486263883546150966e-02
1.179640471024090836e-01
1.515047287676374310e-01
1.836037507414347569e-01
2.121089797108592356e-01
2.346506408382431630e-01
2.488491304863953424e-01
2.535585106555169888e-01
2.485052985053521346e-01
2.340088944169393947e-01
2.109874448123060797e-01
1.809578421544689730e-01
1.460421820847795649e-01
1.090046193012037812e-01
7.219456161438274344e-02
3.729079906027353564e-02
5.667885870657983320e-03
-2.174954255513317225e-02
-4.448676965023079521e-02
-6.251899768021855486e-02
-7.627134774314017762e-02
-8.649881810070537969e-02
-9.370159009552131435e-02
-9.851609042030003149e-02
-1.015403635745853739e-01
-1.032789756602986719e-01
-1.041426569887694137e-01
-1.044483020807338014e-01
-1.044189696663355149e-01
-1.041775492061756264e-01
-1.037653114212880867e-01
-1.033342597467500484e-01
-1.030143543411865259e-01
-1.028575169394045780e-01
-1.028481451526430113e-01
-1.029216219818957778e-01
-1.029646278261710929e-01
-1.028151404824910187e-01
-1.022624351458919084e-01
-1.010470844094237403e-01
-9.893038118609159826e-02
-9.513139104914168642e-02
-8.768404286019644556e-02
-7.509797092947649577e-02
-5.648301627544286690e-02
-3.152110896642115051e-02
-4.205197717237572214e-04
3.546619387864379663e-02
6.951554779511423532e-02
9.549218433357478664e-02
1.091050199801204962e-01
1.080072453510452918e-01
9.180103679645773562e-02
6.242912741421867417e-02
2.603382275061987342e-02
-1.106325990537063153e-02
-4.438847527580421642e-02
-7.132170674420744427e-02
-9.109636635559363593e-02
-1.045778881392494114e-01
-1.163402614679883984e-01
-1.366231212630474312e-01
-1.779568549565913038e-01
-2.319070871566988601e-01
-2.307597634012168719e-01
-8.826097284317155345e-02
2.336232441105662305e-01
6.011393290603245232e-01
7.069583702472468367e-01
4.330077734796937694e-01
1.947455584498322678e-02
-2.646849203101713788e-01
-3.441997937537215613e-01
-2.894377867289487649e-01
-2.070807813511932882e-01
-1.577341898956813038e-01
-1.398652479931173087e-01
-1.328865041745238840e-01
-1.264198536892930380e-01
-1.183176130071478954e-01
-1.074911393222794109e-01
-9.333174533709201470e-02
-7.542946191102382902e-02
-5.354868004008549176e-02
-2.753849854811509998e-02
2.185480193187103962e-03
3.427068738090013195e-02
6.718831504432749846e-02
9.926159520257275826e-02
1.286657998645508449e-01
1.534282410289825038e-01
1.714282706843917314e-01
1.805689080653244127e-01
1.801309845973266266e-01
1.704020319497817348e-01
1.521069170892474509e-01
1.264053407493828940e-01
9.489183743095384871e-02
5.959577540182542377e-02
2.298135669697157213e-02
-1.239029779240890909e-02
-4.519747296061151637e-02
-7.446069545967030912e-02
-9.952359140089389600e-02
-1.200786794841484789e-01
-1.361851527801801742e-01
-1.482694565391984576e-01
-1.571146354831482739e-01
-1.633854119252315662e-01
-1.676116384520067448e-01
-1.703278821122258535e-01
-1.719811319564857888e-01
-1.729304315782839718e-01
-1.734404228952547145e-01
-1.736820468304180187e-01
-1.737375168198238284e-01
-1.735292960188084543e-01
-1.731451200929283729e-01
-1.727422132384003606e-01
-1.724088229350874413e-01
-1.721642199464992196e-01
-1.719586983197915475e-01
-1.716747200101430559e-01
-1.711483036361373111e-01
-1.701670992848919595e-01
-1.684505389495770111e-01
-1.656490779070088626e-01
-1.614202207771903985e-01
-1.546346882139760792e-01
-1.430673899353160916e-01
-1.253836371347462342e-01
-1.012693155927555932e-01
-7.143006887203333377e-02
-3.754816937643554869e-02
-3.269580460583766668e-03
2.492868186596697982e-02
4.196444652375230788e-02
4.475441573381609001e-02
3.220189345800978514e-02
6.002598554975443687e-03
-2.810515413576424038e-02
-6.459189420746816457e-02
-9.896013975380217598e-02
-1.277098265566339874e-01
-1.471535848573083671e-01
-1.611898226488303887e-01
-1.761745218357464171e-01
-1.973839196741959956e-01
-2.290145087719180628e-01
-2.741830370882427648e-01
-3.217480188835356025e-01
-2.493561612325865817e-01
1.217047853899984669e-02
3.897141123739459867e-01
6.616886623977903392e-01
5.748388135983603098e-01
1.834975644569103725e-01
-1.847170635987381571e-01
-3.632323840406118109e-01
-3.575412204411684836e-01
-2.741228155225247654e-01
-2.041251354747924129e-01
-1.749206848458725594e-01
-1.640483341386017868e-01
-1.574545900675612120e-01
-1.495466192284314599e-01
-1.389076593837375029e-01
-1.252121637727497128e-01
-1.077316213006422052e-01
-8.612798023879725262e-02
-6.039541962514195089e-02
-3.085200438423234270e-02
2.308758273879567627e-03
3.724253643564474914e-02
7.149687490064556006e-02
1.028712803269093284e-01
1.294163289342415979e-01
1.494336637477622909e-01
1.614759945979146738e-01
1.643470981204570580e-01
1.569772399762845438e-01
1.390446058466455470e-01
1.130959666216150572e-01
8.174963531184342713e-02
4.732014093620846157e-02
1.182204117951450757e-02
-2.302985232320099024e-02
-5.582047398665638399e-02
-8.543450427533710867e-02
-1.110563697034848418e-01
-1.321702428351070324e-01
-1.486170882620710398e-01
-1.609504689664340571e-01
-1.699183320385102558e-01
-1.761723771645617442e-01
-1.802848937666610973e-01
-1.827493923819686616e-01
-1.839806019525665193e-01
-1.843144698254585989e-01
-1.840081617525705648e-01
-1.832400618907503165e-01
-1.821097728017674056e-01
-1.806059571580514722e-01
-1.787874517441784827e-01
-1.768240964161079398e-01
-1.748365383578980026e-01
-1.728930657366640478e-01
-1.710096077025782257e-01
-1.691497343888696270e-01
-1.672246569118240322e-01
-1.650932273707843567e-01
-1.625619388481502336e-01
-1.594693159511388625e-01
-1.550574911065127626e-01
-1.473090888448556068e-01
-1.346693578145685688e-01
-1.161806526038181575e-01
-9.148243412566237076e-02
-6.079293347340262305e-02
-2.518129913633148156e-02
8.990883622884790483e-03
3.537986717984089452e-02
4.971246514206750095e-02
4.975365670445431460e-02
3.529480891654719621e-02
8.298135121287981281e-03
-2.571308632205126024e-02
-6.044464187788599341e-02
-9.141571877198850782e-02
-1.160118622639199487e-01
-1.334849756470217197e-01
-1.447241496194221488e-01
-1.541372144796883115e-01
-1.714894819007131421e-01
-2.094335421376126993e-01
-2.631799525083736713e-01
-2.672103161187526221e-01
-1.376908683501992803e-01
1.743657460765227485e-01
5.433072316801246249e-01
6.877842775818492349e-01
4.393569870015038292e-01
2.583219431193799209e-02
-2.582658130704304500e-01
-3.334398317897530051e-01
-2.707387511893956100e-01
-1.894963228537235311e-01
-1.452956814255735585e-01
-1.283295294097107631e-01
-1.216691039492242138e-01
-1.153824815528883274e-01
-1.052020071741104762e-01
-9.198896552149773975e-02
-7.544163978855368546e-02
-5.472602797989704893e-02
-2.968531210655978025e-02
-5.935538279255659147e-04
3.188618135897487021e-02
6.676908277787184376e-02
1.017428089199976238e-01
1.344418661020690964e-01
1.627338103106804879e-01
1.847185360373359841e-01
1.986832602439190798e-01
2.030273779112463928e-01
1.961203802854867839e-01
1.795402405546874247e-01
1.556313935869285681e-01
1.265587565211941656e-01
9.430772876735786514e-02
6.068419200619210030e-02
2.731451018936253278e-02
-4.353733539263024248e-03
-3.299928312006762676e-02
-5.739143680346291132e-02
-7.678529640741270368e-02
-9.170121609645041916e-02
-1.028694469075619178e-01
-1.109432690569189389e-01
-1.164990118547242770e-01
-1.200360537052103244e-01
-1.219768221066411945e-01
-1.226672749151253849e-01
-1.224155853663903282e-01
-1.215204821499387411e-01
-1.202104244313780684e-01
-1.186369204703457830e-01
-1.168745274307977644e-01
-1.149103010089557592e-01
-1.128695149927952945e-01
-1.109136711316514035e-01
-1.091215961272017920e-01
-1.074891812597134066e-01
-1.059055848709290620e-01
-1.041347589969350979e-01
-1.018542281837137575e-01
-9.866622446984510408e-02
-9.410734590253631848e-02
-8.626302237558675090e-02
-7.330269757625072768e-02
-5.411531585654168891e-02
-2.830932223323982116e-02
3.813734852501145245e-03
4.075348078327706292e-02
7.581776251954441825e-02
1.026146193337644091e-01
1.167848408834572110e-01
1.160019672112157230e-01
9.996479428700880132e-02
7.143189322546882047e-02
3.729274458445811652e-02
3.488420736967636979e-03
-2.591571047809395137e-02
-4.870924480395687206e-02
-6.445189319675700967e-02
-7.477419392757399252e-02
-8.682871484946140528e-02
-1.113722346262188967e-01
-1.604308889720201525e-01
-2.022511315281644573e-01
-1.532945424751214203e-01
7.000353198312922465e-02
4.405362112144554643e-01
7.249955818651278028e-01
6.258403345687648667e-01
2.484452770083409867e-01
-1.132438797909159078e-01
-2.704496513419992754e-01
-2.491340082703112635e-01
-1.639495090418393308e-01
-1.024900590277397078e-01
-7.953061708649798722e-02
-7.035478786740852197e-02
-6.322356250778587983e-02
-5.372672758553559413e-02
-4.135542813754320562e-02
-2.534674170087779232e-02
-5.240668167687798085e-03
1.917526641277961935e-02
4.793091806285237899e-02
8.023421736003163995e-02
1.146956358210617227e-01
1.496432280127120706e-01
1.831324800620234006e-01
2.129582686604913344e-01
2.366359272534446223e-01
2.517903479977550152e-01
2.572648080894094913e-01
2.526430423337168718e-01
2.382391320299209192e-01
2.150993035234320672e-01
1.850019282058245895e-01
1.504574881522007801e-01
1.143210661775212189e-01
7.866358591087407870e-02
4.535605901041352833e-02
1.576223850531825038e-02
-9.279800612533785353e-03
-2.945766138855303654e-02
-4.498462490544270775e-02
-5.655186866247634281e-02
-6.475290538521838446e-02
-7.028931775441030205e-02
-7.383305541656143278e-02
-7.593643484928548626e-02
-7.704828046700809563e-02
-7.751670980745123396e-02
-7.758913353163354731e-02
-7.741225542387039638e-02
-7.703402352839361367e-02
-7.652933513019677392e-02
-7.598252783800477084e-02
-7.543765386720586996e-02
-7.490434234392359669e-02
-7.436647650101982365e-02
-7.376947393604196823e-02
-7.301838687063061384e-02
-7.197795706030993279e-02
-7.047261579448681201e-02
-6.836517263691550828e-02
-6.450070595952508978e-02
-5.725910182053654818e-02
-4.530585841264069685e-02
-2.759349492371950333e-02
-3.362507255611955036e-03
2.804503875197452561e-02
6.359974974840931772e-02
9.651295561364660325e-02
1.212749588705252513e-01
1.338310587651454497e-01
1.315815512668661591e-01
1.134307398467275380e-01
8.264414360738238374e-02
4.655627213099948480e-02
1.107389249111486937e-02
-1.975730004883278351e-02
-4.375518414295020975e-02
-6.060131488166330821e-02
-7.208825700266567604e-02
-8.442284560354031131e-02
-1.108577536962464249e-01
-1.616463286585248238e-01
-2.004934836642293106e-01
-1.427797706527111909e-01
9.723018017634381394e-02
4.778036985111541179e-01
7.327523104843642887e-01
5.997071205519900472e-01
2.019116467482278132e-01
-1.473724358110289623e-01
-2.959833683296571039e-01
-2.744673388539549674e-01
-1.881374276819167135e-01
-1.264215327054115101e-01
-1.014837700138518650e-01
-9.236694390242249086e-02
-8.572777834014332077e-02
-7.737149307735824433e-02
-6.629948713260883086e-02
-5.197706822634646368e-02
-3.383284188299284095e-02
-1.163158806941055716e-02
1.454913339843072993e-02
4.459090645919908807e-02
7.742809484677361243e-02
1.109620907434969994e-01
1.431652478964228481e-01
1.720908175715759603e-01
1.958729485539710546e-01
2.127266871475997356e-01
2.209479771754345179e-01
2.186706883992806383e-01
2.054834269952883485e-01
1.837398076653705137e-01
1.557081121264884127e-01
1.234719497492645368e-01
8.893949723794855600e-02
5.384345386602214234e-02
1.974104147621182082e-02
-1.198599551951781694e-02
-4.013139013995192794e-02
-6.366435519518405528e-02
-8.207983046869338217e-02
-9.604348449893840289e-02
-1.063460143420431880e-01
-1.137006145092047948e-01
-1.187462396204836262e-01
-1.220476044048058872e-01
-1.240951836999622249e-01
-1.253052124526097544e-01
-1.260196857182704078e-01
-1.265063586613314472e-01
-1.269587460849135596e-01
-1.274868263974643368e-01
-1.280931772983075201e-01
-1.286986877422854059e-01
-1.291698043830162568e-01
-1.295769334881886337e-01
-1.300169408032143537e-01
-1.304694543663485473e-01
-1.307967651104528506e-01
-1.307438268629952105e-01
-1.299382565298787540e-01
-1.279057647674822218e-01
-1.241632307772154303e-01
-1.177086146445181086e-01
-1.064614001331931625e-01
-8.905955816237183520e-02
-6.504753643236280136e-02
-3.487625942466149320e-02
1.851021547694463136e-04
3.516693298139410978e-02
6.335116509881809355e-02
7.988994435595193899e-02
8.189284804782603899e-02
6.839202501180155491e-02
4.122180759789958321e-02
6.632619965661516216e-03
-2.945203408501476799e-02
-6.254729646283037348e-02
-8.960695478507187117e-02
-1.087114190461852536e-01
-1.219464726799433518e-01
-1.351512561516833300e-01
-1.555120721803143757e-01
-1.915383135038211948e-01
-2.500688496695681606e-01
-2.573721024069358099e-01
-1.138606130941951788e-01
1.955082960443054740e-01
5.697332956670697612e-01
6.895038197188486651e-01
4.303284642523926284e-01
1.609613073116373388e-02
-2.803738110336377320e-01
-3.678578458895825909e-01
-3.216383792471889103e-01
-2.431839896660018541e-01
-1.899188658989207079e-01
-1.699998097802246089e-01
-1.630561587638308385e-01
-1.575460862000028217e-01
-1.493163605363748703e-01
-1.387918202519594912e-01
-1.249552320197299254e-01
-1.073029253347156237e-01
-8.560667500985283396e-02
-5.991357684264678879e-02
-3.002015810589259842e-02
3.092154258401984442e-03
3.699684182087384365e-02
6.948934476682634698e-02
9.859743631541020847e-02
1.225817425020721274e-01
1.399374492527443170e-01
1.493911699096654444e-01
1.499010770283246696e-01
1.406392996383105110e-01
1.214125633991605668e-01
9.445120980079044215e-02
6.226773551461251693e-02
2.711522474574629138e-02
-9.012650766972055832e-03
-4.438536572086752147e-02
-7.755006551273833926e-02
-1.073188800125220027e-01
-1.327633529245302313e-01
-1.532198847063561964e-01
-1.688533278642313507e-01
-1.804237593480432778e-01
-1.886388315699555340e-01
-1.941385685740887601e-01
-1.974953660365188213e-01
-1.992123453720557325e-01
-1.997169618482066145e-01
-1.993701620134626928e-01
-1.984674347853968568e-01
-1.972366660508430569e-01
-1.958381133285918563e-01
-1.943644057693907912e-01
-1.927838098504331965e-01
-1.910638775981007287e-01
-1.894195740226114755e-01
-1.879875298594955169e-01
-1.868060078402732638e-01
-1.858187330011880078e-01
-1.848768073846531468e-01
-1.837387113611129719e-01
-1.820703036290420296e-01
-1.794448212149461486e-01
-1.753481965550736932e-01
-1.692204323550335343e-01
-1.588990110721878457e-01
-1.425599363358421023e-01
-1.195721055401578747e-01
-9.049278053430938329e-02
-5.707113219398905063e-02
-2.235311422713773255e-02
7.953983509331475840e-03
2.815590440300223818e-02
3.462759099502629723e-02
2.582522705313905487e-02
2.993877785245782283e-03
-2.875087720713855738e-02
-6.410052394698216582e-02
-9.824811636202777920e-02
-1.274760007712353316e-01
-1.500244538541684602e-01
-1.643719110734516153e-01
-1.733306608165193774e-01
-1.843784173389802772e-01
-2.106530393264414991e-01
-2.866319418953706122e-01
-3.296653870931584573e-01
-2.553240080784961452e-01
-3.505404367759330092e-02
3.038053529951034726e-01
6.315275582903245866e-01
6.352947553869175978e-01
2.955832208970219366e-01
-1.061952420006704034e-01
-3.472670691337563786e-01
-3.894918768517154906e-01
-3.214487946391844653e-01
-2.431041820188970803e-01
-1.997011644794398910e-01
-1.834088541884830725e-01
-1.767310803670327779e-01
-1.697079775032165061e-01
-1.594460391376567865e-01
-1.468781486675989623e-01
-1.308929964993831296e-01
-1.110647083612554681e-01
-8.726583734886771138e-02
-5.963537260114423755e-02
-2.835122806525866915e-02
5.933956342035085797e-03
4.086275968197589092e-02
7.420476801833029989e-02
1.039744311732963139e-01
1.284310627275213612e-01
1.460788400200902226e-01
1.556668041485281540e-01
1.561851787324649299e-01
1.467343123821985007e-01
1.274875947562192080e-01
1.009343341300246305e-01
6.950229700969752511e-02
3.535294439511744991e-02
3.814317799426176527e-04
-3.378339084837792688e-02
-6.577897900861094660e-02
-9.450909372572452449e-02
-1.191436144302476380e-01
-1.391139492778652731e-01
-1.543838922825767068e-01
-1.656611442920758182e-01
-1.736712795278094190e-01
-1.790697319837012136e-01
-1.824417954261518815e-01
-1.843026233940392999e-01
-1.850972291987181551e-01
-1.852004859240203027e-01
-1.849118511646228868e-01
-1.844194503360832849e-01
-1.838219069324398824e-01
-1.831475918747462461e-01
-1.823547358565331122e-01
-1.811542362321761634e-01
-1.795100358550822395e-01
-1.777573352648785243e-01
-1.760697096229406622e-01
-1.744562168046540351e-01
-1.727712323257099558e-01
-1.707852134191678306e-01
-1.681411208362260656e-01
-1.643143666256002555e-01
-1.586156201107328245e-01
-1.501910333290754906e-01
-1.380222410320949000e-01
-1.209263606852651607e-01
-9.754285238764121013e-02
-6.783998657809260646e-02
-3.394839640794365676e-02
9.710294060736651342e-04
3.272220013739392946e-02
5.603142034129653115e-02
6.524328404663118364e-02
5.903917791588878666e-02
3.920354120233311701e-02
9.022849649185916282e-03
-2.671727284637090416e-02
-6.190604122407539905e-02
-9.223895720033976897e-02
-1.154293833881347014e-01
-1.311986704026533446e-01
-1.415809135242906414e-01
-1.506548943455066625e-01
-1.677543751947848105e-01
-2.113880892047852456e-01
-2.626292670887392378e-01
-2.619051582428965630e-01
-1.156331608397630634e-01
2.151194273406508706e-01
5.896557510355259213e-01
7.147366789916353991e-01
4.762529975644924085e-01
5.865948932969350382e-02
-2.413713035422454245e-01
-3.415288735310874624e-01
-2.929566683464021049e-01
-2.061491166856024571e-01
-1.505730379520574813e-01
-1.294053688078415087e-01
-1.201329634412198200e-01
-1.127645086189069668e-01
-1.029760806526076877e-01
-9.057756258315421971e-02
-7.478008180359405066e-02
-5.509195100017146018e-02
-3.128184649797136757e-02
-3.363655575975576378e-03
2.901449350404057548e-02
6.442596824996901783e-02
1.006437545801305566e-01
1.355952792856952860e-01
1.673704504447655894e-01
1.942217690010377140e-01
2.145643287638029084e-01
2.269758164079477836e-01
2.301965114739478180e-01
2.230163853635215299e-01
2.051792550673208482e-01
1.792397640121287661e-01
1.478025769063732453e-01
1.131940336886382570e-01
7.744264065800819663e-02
4.227499918330752948e-02
9.115230635600605341e-03
-2.091502361184759476e-02
-4.699660218354522606e-02
-6.861282370178012346e-02
-8.554749619541447692e-02
-9.809400944567192582e-02
-1.069876892698114479e-01
-1.129372609609702038e-01
-1.165742400428567832e-01
-1.184524910678613624e-01
-1.190482276170509585e-01
-1.187600123001713442e-01
-1.179087567556462851e-01
-1.167377216505781773e-01
-1.154125166807477981e-01
-1.140171597071899939e-01
-1.125783600658434580e-01
-1.111601636909064217e-01
-1.098049836120957301e-01
-1.085198567435299022e-01
-1.072756555855057109e-01
-1.060070882244974894e-01
-1.046126983331576721e-01
-1.029548651703162954e-01
-1.008598035809809418e-01
-9.814676905145679198e-02
-9.391912988775466542e-02
-8.690047258194751045e-02
-7.589450925806684456e-02
-5.978542330902435198e-02
-3.753786939661148819e-02
-8.096271609664791244e-03
2.679499704049240205e-02
6.223117689850918982e-02
9.354959065090634462e-02
1.164459804278750177e-01
1.269796088976643811e-01
1.215725823107191017e-01
1.006034107432351443e-01
7.028547385812540516e-02
3.624720987876429990e-02
2.956678347458443872e-03
-2.627843987453011912e-02
-4.931084260701996957e-02
-6.318777418863853745e-02
-6.672715548746217806e-02
-8.089314250017035079e-02
-1.154498868798592842e-01
-1.647617449654084909e-01
-2.077932698360632491e-01
-1.977094921330241617e-01
-3.012256908519291357e-02
3.082550760278339741e-01
6.719399121787005269e-01
7.598291725429647814e-01
4.740407876584462055e-01
6.258846192095475491e-02
-2.166843693091947409e-01
-2.909886644364070296e-01
-2.320251768654718605e-01
-1.503933773276829311e-01
-1.012276112807279776e-01
-8.012363430425055444e-02
-7.105245182796536552e-02
-6.581535642827202048e-02
-5.891677131653601934e-02
-4.755498005948659290e-02
-3.162383063300561875e-02
-1.266065395873239817e-02
1.025457431271010675e-02
3.721154896382471156e-02
6.771668200411225247e-02
1.007943554588644763e-01
1.349869213691633762e-01
1.686703302286515771e-01
1.995788587053404783e-01
2.250843574688373705e-01
2.431949721811488829e-01
2.525593099909564376e-01
2.524675744088999974e-01
2.428520392292216057e-01
2.242470924940553889e-01
1.975603578468004273e-01
1.652853081076420261e-01
1.299831521949376678e-01
9.385435468696293193e-02
5.872649845096886145e-02
2.605563202173731205e-02
-3.062669886939780803e-03
-2.789290188429447565e-02
-4.801344364802199310e-02
-6.349464483404569648e-02
-7.506009025744327101e-02
-8.341201866742617432e-02
-8.918617667380214498e-02
-9.295127173533035414e-02
-9.519842720165988537e-02
-9.634155808149152955e-02
-9.672547486762458901e-02
-9.662771846326602410e-02
-9.625933680116746660e-02
-9.576083997789629210e-02
-9.513901384390478777e-02
-9.446481844496223967e-02
-9.381903231233461316e-02
-9.324297552248569931e-02
-9.273574880939007559e-02
-9.225432657671871206e-02
-9.171624338199908799e-02
-9.099970869031683007e-02
-8.994360687431469936e-02
-8.834749721419347945e-02
-8.605475023985602323e-02
-8.210768572860535630e-02
-7.489279704855680841e-02
-6.309363793190231329e-02
-4.573184556786562965e-02
-2.216760194418016666e-02
8.027960489712160363e-03
4.377370296129666494e-02
7.900189661240461514e-02
1.080778465100687702e-01
1.266918158969673192e-01
1.318590261914229789e-01
1.219196569874038683e-01
9.715934757343089312e-02
6.315480185886340747e-02
2.629851402988864564e-02
-8.616376272145993484e-03
-3.840300959927637342e-02
-6.148080669692172762e-02
-7.784817213778751077e-02
-8.966448148793502992e-02
-1.038084497043413462e-01
-1.318451126379450167e-01
-1.840359326855628974e-01
-2.249005637212408704e-01
-1.782126846372334983e-01
3.518756759986693683e-02
4.036388609516051718e-01
7.150181792415307713e-01
6.857490529726885109e-01
3.322572880282099739e-01
-6.135850915247000742e-02
-2.830216888693619648e-01
-3.113163479453555094e-01
-2.357079645802759027e-01
-1.584682935671362369e-01
-1.211515597549079892e-01
-1.074656525135999213e-01
-1.013309047404180319e-01
-9.455848717998809050e-02
-8.526028951583762561e-02
-7.318151834924868648e-02
-5.757874020161810047e-02
-3.807655333847412976e-02
-1.453018658332473102e-02
1.326660522540414923e-02
4.480072161521838486e-02
7.822281566097809280e-02
1.116894131590396161e-01
1.433940349091588629e-01
1.715671967144971888e-01
1.944764093816207795e-01
2.104261787205010947e-01
2.177581567055199285e-01
2.148662431670531059e-01
2.017083513604598366e-01
1.800906118889103458e-01
1.518881708026524890e-01
1.189605560922662314e-01
8.315167768866156550e-02
4.628982746307844925e-02
1.018767922708739733e-02
-2.335771126741127690e-02
-5.261809417785536652e-02
-7.697698057158258722e-02
-9.677681811794699995e-02
-1.124193532665146433e-01
-1.243493837614698949e-01
-1.330559845067593172e-01
-1.390725339836617613e-01
-1.429767142507886724e-01
-1.453905109440835064e-01
-1.469773633195810558e-01
-1.481543336250917553e-01
-1.490529804538923975e-01
-1.497790695316091880e-01
-1.504068078326097346e-01
-1.509820436985906122e-01
-1.515222668385781124e-01
-1.520166083289273273e-01
-1.524258406133224830e-01
-1.526812043126614393e-01
-1.526518364235689429e-01
-1.523756687535852417e-01
-1.518635348512370198e-01
-1.509937729468125989e-01
-1.494655243224408681e-01
-1.467947156123063368e-01
-1.423246913951374537e-01
-1.353801363694487336e-01
-1.239023895992564517e-01
-1.062906423965828406e-01
-8.213014372377347438e-02
-5.219160999364041292e-02
-1.839499650852489260e-02
1.624398080412316550e-02
4.519489738521616229e-02
6.277313478557119963e-02
6.585183475730538305e-02
5.386189925385575367e-02
2.879141348264380174e-02
-5.128276420874867264e-03
-4.185229236110158541e-02
-7.622783284083749222e-02
-1.049561725339822199e-01
-1.266002665141519601e-01
-1.415175526722850241e-01
-1.520812914673136396e-01
-1.650658393912173005e-01
-1.925586573755975195e-01
-2.445864249763788911e-01
-2.830760314928826293e-01
-2.333285223737769365e-01
-1.515339817038885081e-02
3.502727402254629530e-01
6.633337991735434036e-01
6.231324012352402741e-01
2.779239656937354530e-01
-1.176483285086925706e-01
-3.356737170419989980e-01
-3.643756375271500203e-01
-2.884128293416809985e-01
-2.126948201933106242e-01
-1.742447656894957064e-01
-1.622227606621297891e-01
-1.559359061441596694e-01
-1.495101823350413195e-01
-1.404127324212165462e-01
-1.284077876867509294e-01
-1.127721370574743809e-01
-9.304482838727085037e-02
-6.910655838858091593e-02
-4.117955271636269954e-02
-9.731946720278619734e-03
2.454125384327509110e-02
5.931949672786619721e-02
9.226753312323324185e-02
1.213038371363841239e-01
1.446006057915960041e-01
1.605837590304177442e-01
1.679329397116597067e-01
1.655759177227770218e-01
1.525376714606337114e-01
1.303906460606487627e-01
1.015878361413198872e-01
6.838480113174037756e-02
3.281971217212342751e-02
-3.288668931757564133e-03
-3.834208003743967696e-02
-7.096284432229411909e-02
-9.999387028350097129e-02
-1.244986649815370133e-01
-1.440147113067675733e-01
-1.590557961672731113e-01
-1.702927133871045273e-01
-1.783672765964012252e-01
-1.838710562268405790e-01
-1.873428412782118246e-01
-1.892686393184218052e-01
-1.900816764834906136e-01
-1.901623974775530079e-01
-1.898384655728581893e-01
-1.893137891024370412e-01
-1.886713041180254347e-01
-1.879973781081304973e-01
-1.873184334563896825e-01
-1.866359319940618378e-01
-1.859320884909701488e-01
-1.851661408997068714e-01
-1.842739720989781949e-01
-1.831681098936038254e-01
-1.817377270145175416e-01
-1.798494122989939548e-01
-1.774392257753398261e-01
-1.737086635861500861e-01
-1.675541678955343450e-01
-1.579119908162949781e-01
-1.437511304241319010e-01
-1.240733307576428468e-01
-9.790512568367140678e-02
-6.421115507970465153e-02
-2.740641696862451682e-02
6.664112101492997847e-03
3.322313286690471018e-02
4.859162288304906541e-02
5.022179241043166209e-02
3.664780096617663990e-02
9.363192837573086624e-03
-2.529814154980135343e-02
-6.155892735513498332e-02
-9.504649807629125813e-02
-1.227927955498478441e-01
-1.425057689353239065e-01
-1.550737398976869408e-01
-1.681647213607958269e-01
-1.885404228883815203e-01
-2.215433620552191563e-01
-2.710175712287167249e-01
-3.023052707818739138e-01
-2.125512047474933108e-01
4.665534542225469039e-02
4.359893872487234923e-01
6.765795707457438191e-01
5.464042150671720721e-01
1.489585518751801174e-01
-2.058417665406215014e-01
-3.612468912225749729e-01
-3.393261113480091073e-01
-2.566847844987629745e-01
-1.937126603859568030e-01
-1.664055662955125359e-01
-1.550246238054463765e-01
-1.486244780357706963e-01
-1.408199677918405557e-01
-1.288660407998944435e-01
-1.134514735029785587e-01
-9.453606822425178469e-02
-7.141986712530604131e-02
-4.411661202419889238e-02
-1.310722018503232555e-02
2.066021568204752523e-02
5.585987592180228362e-02
9.076219625069580077e-02
1.226807864852994950e-01
1.492630460372683654e-01
1.686565023405601771e-01
1.794652326236166606e-01
1.807423702123150677e-01
1.717360588903853458e-01
1.523623814437832513e-01
1.253408521488462712e-01
9.335517539007461008e-02
5.877461384732768357e-02
2.365393717660051881e-02
-1.028869329507302831e-02
-4.170623092155617551e-02
-6.957499860869482966e-02
-9.318576096699311695e-02
-1.121437243116127636e-01
-1.263965979672705686e-01
-1.365251564369080461e-01
-1.433245757409604693e-01
-1.475106104568898457e-01
-1.497180945468759850e-01
-1.504889314709650650e-01
-1.502520090766701621e-01
-1.493492648231701247e-01
-1.480392317446896089e-01
-1.464990208445060282e-01
-1.448242043382141353e-01
-1.430157776609632392e-01
-1.411442906914611994e-01
-1.392892368240314371e-01
-1.374858152964939240e-01
-1.357319142945418722e-01
-1.340006124173269975e-01
-1.322240555686950148e-01
-1.302900864864637853e-01
-1.280422447424219012e-01
-1.252829933977733790e-01
-1.217439128175130392e-01
-1.160996825107409175e-01
-1.068715719841932255e-01
-9.284285182179721763e-02
-7.304874320571909385e-02
-4.675472812016053664e-02
-1.369254439785558101e-02
2.176216208341371847e-02
5.406947817420632713e-02
7.850761838433871487e-02
9.117292488289470420e-02
8.897986749822524299e-02
7.039105179122992495e-02
4.065018074340994575e-02
6.399724959259849369e-03
-2.725152089464380825e-02
-5.669694918234452485e-02
-7.982473405494797114e-02
-9.601783145062212088e-02
-1.018289734410428443e-01
-1.098873503874080865e-01
-1.391326281469647541e-01
-1.878203337759396241e-01
-2.332610027736085057e-01
-2.217143608693264711e-01
-4.843577517629577694e-02
2.938845770200346763e-01
6.500151672675262837e-01
7.031728797984340140e-01
3.886814844356198950e-01
-1.533855339522690632e-02
-2.574582484454882025e-01
-2.919611981020146518e-01
-2.216069978995878487e-01
-1.468731222445635587e-01
-1.080371844191431591e-01
-9.248246387600954355e-02
-8.499545668903055184e-02
-7.741702495579266818e-02
-6.586955577850983623e-02
-5.066388867004806978e-02
-3.218590713984103430e-02
-9.572204530076436693e-03
1.722281963786198578e-02
4.779748042378118011e-02
8.133828500219178470e-02
1.169136994235754762e-01
1.521927483550154225e-01
1.845770659332763020e-01
2.118360282666292838e-01
2.321067528540420311e-01
2.438940985851853205e-01
2.460706657404335973e-01
2.375774761733600027e-01
2.183918187899167307e-01
1.913908919558631461e-01
1.593213033182189486e-01
1.245892812713156328e-01
8.926067495681451469e-02
5.506095426370310325e-02
2.337520982829490238e-02
-4.751846965771056551e-03
-2.861588398752938286e-02
-4.785294837690175218e-02
-6.244351577195084851e-02
-7.293491652817792048e-02
-8.011834796626104982e-02
-8.470139084324396217e-02
-8.730388255236574968e-02
-8.845797372948970005e-02
-8.860812850116461803e-02
-8.811112448462417313e-02
-8.723605278778720495e-02
-8.616431800923760043e-02
-8.498518097699628293e-02
-8.372565289761932372e-02
-8.245296224906863147e-02
-8.121288973320657523e-02
-8.001563999900244972e-02
-7.883584164253237825e-02
-7.761254720697925713e-02
-7.624923318263321370e-02
-7.461380000689091241e-02
-7.255584935750547526e-02
-6.977291847982433626e-02
-6.514420637617400478e-02
-5.743108027996749604e-02
-4.541742070299009670e-02
-2.790995533222241989e-02
-3.725455850997460780e-03
2.797318984563930411e-02
6.322416431022788441e-02
9.684416056474157153e-02
1.240611358597549785e-01
1.405211187954858720e-01
1.423110517028451649e-01
1.266717426325213725e-01
9.814188162499556944e-02
6.361707458490294120e-02
2.854476434406029439e-02
-3.086344452370286175e-03
-2.874628534588431414e-02
-4.736383006463570911e-02
-5.766754735497913592e-02
-6.878394363687451163e-02
-9.356243908916365981e-02
-1.356629106890155090e-01
-1.907878625502194003e-01
-1.856917528556755459e-01
-3.169867125660964097e-03
3.424329264520039606e-01
6.876455916322644635e-01
7.298016992012873461e-01
4.026840615269041690e-01
3.193481530836223253e-03
-2.302033976674475735e-01
-2.600352167457877783e-01
-1.833957660210672191e-01
-1.098229632493503138e-01
-7.597200711236415382e-02
-6.405042594536015932e-02
-5.835347725094815891e-02
-5.090885155779708432e-02
-4.056721911583263673e-02
-2.708490676112518258e-02
-9.684545151153720749e-03
1.195749978864699310e-02
3.793759311961329705e-02
6.827608187405262430e-02
1.015167381519569006e-01
1.358272316545979241e-01
1.693196640505748030e-01
2.000505689757893779e-01
2.260209120334829846e-01
2.451756707559822612e-01
2.554020487138256579e-01
2.549297499260669841e-01
2.442230601338609974e-01
2.246288689279906658e-01
1.977052251087509371e-01
1.652213366859688060e-01
1.291575708789756693e-01
9.170545411662421598e-02
5.526767203728435995e-02
2.219413058429497293e-02
-6.690763080038500746e-03
-3.116218473614158768e-02
-5.117228114433372554e-02
-6.686441556876085435e-02
-7.857488943573257001e-02
-8.683300223762864534e-02
-9.236105153290320724e-02
-9.602677979680931952e-02
-9.825519366650851960e-02
-9.934042533495632266e-02
-9.960991886623325742e-02
-9.934273290532394385e-02
-9.875182162601163494e-02
-9.798401351881536048e-02
-9.712001139098948299e-02
-9.614501311207752920e-02
-9.515968401742885829e-02
-9.432962921573211090e-02
-9.373143523221608153e-02
-9.334557115629078805e-02
-9.302232292983746154e-02
-9.250766982600604205e-02
-9.146218458377561311e-02
-8.947917611449152098e-02
-8.599137624930792978e-02
-7.899165898473724245e-02
-6.673751399185171018e-02
-4.823594147848338926e-02
-2.324345218921932202e-02
7.809160578664173756e-03
4.270746016894047536e-02
7.448652201974324816e-02
9.716441067216118055e-02
1.067620495591585367e-01
1.013032210055756083e-01
8.081974869257987915e-02
4.907809486168612789e-02
1.309751441511238651e-02
-2.151540116225780785e-02
-5.097257417797255302e-02
-7.333874523635967868e-02
-8.804119412821893864e-02
-9.820643095031310332e-02
-1.127569687113302854e-01
-1.410175829866707198e-01
-1.932921230835867865e-01
-2.350779165903647827e-01
-1.529093120152880680e-01
9.952963490032806781e-02
4.776350075321030841e-01
7.152675757120819933e-01
5.653776185019319112e-01
1.612244601537023703e-01
-1.823292938921805273e-01
-3.178713159912405217e-01
-2.879290895988521615e-01
-2.107803663697310204e-01
-1.547637114584561879e-01
-1.327507838191634981e-01
-1.250456320378377506e-01
-1.200157435189550953e-01
-1.121869999147209057e-01
-1.011654041183843028e-01
-8.678395627591287131e-02
-6.830984978096074633e-02
-4.553395754706723170e-02
-1.860984620518943422e-02
1.203920957249607002e-02
4.565379141933158247e-02
7.997613482963782106e-02
1.127374013526090957e-01
1.418504173325888240e-01
1.653958845709415648e-01
1.816223074844070529e-01
1.889459931051060970e-01
1.856867712079172117e-01
1.712093556378264936e-01
1.480233812957901796e-01
1.186374144971376055e-01
8.531814471249719867e-02
5.007385851823356604e-02
1.466428209684732947e-02
-1.939074493574148919e-02
-5.081143916249876435e-02
-7.855757987876721415e-02
-1.018284556818818132e-01
-1.201611775035214408e-01
-1.340439285814807313e-01
-1.442921508100914185e-01
-1.516387588604667380e-01
-1.567157766900404425e-01
-1.600643429646289861e-01
-1.621446097528786434e-01
-1.633358160119693925e-01
-1.639362875876148318e-01
-1.641634372140624021e-01
-1.641537645140932478e-01
-1.639628559990223278e-01
-1.635366443824142479e-01
-1.629132940877785207e-01
-1.622513795381353707e-01
-1.616480389548066166e-01
-1.611249449691440905e-01
-1.606276218306844361e-01
-1.600264458592857431e-01
-1.591167832994493103e-01
-1.576189903203198683e-01
-1.551822132432338353e-01
-1.514697152003490754e-01
-1.445516026569824142e-01
-1.324961219960776038e-01
-1.142302859571346918e-01
-8.955260340654942752e-02
-5.913320639740141105e-02
-2.465944079258921770e-02
8.318130800393459812e-03
3.334910037868854538e-02
4.594319524810907412e-02
4.359309493844854694e-02
2.578932981809980984e-02
-3.967914176950613353e-03
-3.917436073569577348e-02
-7.443151490119497005e-02
-1.056773483093240984e-01
-1.302482016821897293e-01
-1.478901346083533186e-01
-1.593711627808783726e-01
-1.702182489605821025e-01
-1.918673298859467358e-01
-2.392772275235570401e-01
-2.864325309636577832e-01
-2.594967965190495551e-01
-7.010078944034188464e-02
2.826053272028050678e-01
6.103321566203759874e-01
6.029621012383192813e-01
2.560728259145740870e-01
-1.379924602170764236e-01
-3.580264934268346799e-01
-3.820525296328913245e-01
-3.047357923040235339e-01
-2.304577699025896764e-01
-1.944415992521341952e-01
-1.807076011680304739e-01
-1.746688124500735684e-01
-1.679108226817803695e-01
-1.573252065224916563e-01
-1.440393475875920148e-01
-1.273171845771909894e-01
-1.065885832829486235e-01
-8.175922242104513571e-02
-5.311530716607905378e-02
-2.134068378186781273e-02
1.283735674891058921e-02
4.726782596317363055e-02
7.941668422264186455e-02
1.071025470216262765e-01
1.284966849870343431e-01
1.421230238783697808e-01
1.468550091208654096e-01
1.418559715844158464e-01
1.263771373646718765e-01
1.023969211672280805e-01
7.254350728296710127e-02
3.915636326275439422e-02
4.286006983866336682e-03
-3.030599335001321962e-02
-6.314701920879346730e-02
-9.305340173597616282e-02
-1.191283512156021684e-01
-1.407375761975257489e-01
-1.576060192705691088e-01
-1.702779175800696321e-01
-1.794972903668363706e-01
-1.859316648180850962e-01
-1.901720508524824549e-01
-1.927329411201454679e-01
-1.940523110026417253e-01
-1.944916186129897195e-01
-1.943362004994080017e-01
-1.938002266379569294e-01
-1.930251952708417484e-01
-1.920764412055505355e-01
-1.908910934674071247e-01
-1.895437806121226254e-01
-1.881852441163470724e-01
-1.868905070921720868e-01
-1.856588742871312092e-01
-1.844139320842004270e-01
-1.830045021390158400e-01
-1.812173524068501629e-01
-1.787737506839928714e-01
-1.753194924432976975e-01
-1.706303589925441677e-01
-1.633483909466882100e-01
-1.510875756065380437e-01
-1.325074994017739483e-01
-1.073645471986596350e-01
-7.651190230005547321e-02
-4.189767133218001011e-02
-7.079140468620586171e-03
2.174026962151187972e-02
3.928988746769483675e-02
4.223273370928008752e-02
2.943675263220505572e-02
3.968846897985947586e-03
-2.915219419490349892e-02
-6.451992982002936750e-02
-9.681867568581969952e-02
-1.227623104650057834e-01
-1.409016311965002599e-01
-1.524090465025973173e-01
-1.611035965866507436e-01
-1.734663335227511205e-01
-2.080468405062095016e-01
-2.609743534004362875e-01
-2.823771820924703135e-01
-1.768691677526197381e-01
1.144019284227958122e-01
4.968899707823298262e-01
6.947156274815199373e-01
5.014072132975415652e-01
9.230794914761876468e-02
-2.383209209256010874e-01
-3.651758870160989323e-01
-3.291955611641937951e-01
-2.452392871172321687e-01
-1.863686774125999368e-01
-1.606414629472018296e-01
-1.500837516518603032e-01
-1.444093646452167257e-01
-1.370063068171765708e-01
-1.248618051133378315e-01
-1.085590493279497276e-01
-8.918583493172982379e-02
-6.563377291905027333e-02
-3.789167285095484256e-02
-6.429423039015235569e-03
2.780200945474507399e-02
6.337097961443718952e-02
9.862558636523466316e-02
1.312517711266539544e-01
1.586757749615766433e-01
1.788911675449603722e-01
1.904580254415007279e-01
1.924995511873048570e-01
1.847020280080702848e-01
1.669237820969537434e-01
1.408883722271782324e-01
1.092534384735989600e-01
7.439895269188526172e-02
3.842621877147591597e-02
3.140708445908258969e-03
-2.994864155639264877e-02
-5.962942951221049392e-02
-8.498578870344637715e-02
-1.053769498718279546e-01
-1.207924667818255915e-01
-1.319348296842921264e-01
-1.394826074600422350e-01
-1.440883393092853848e-01
-1.463778653004040031e-01
-1.469094106734805671e-01
-1.461787162757988146e-01
-1.446155301641970925e-01
-1.425793609415131058e-01
-1.403594331990854205e-01
-1.381746875167505495e-01
-1.361737804628464499e-01
-1.344324980897539934e-01
-1.328887169496162646e-01
-1.313413964132042200e-01
-1.299304013644043965e-01
-1.287746604191487287e-01
-1.278443847472960637e-01
-1.269610680726371010e-01
-1.257974866728916452e-01
-1.238776993797076065e-01
-1.205770475786653445e-01
-1.151246753725176930e-01
-1.067926021156863914e-01
-9.404666401242790796e-02
-7.481679022407905499e-02
-4.850000876411225681e-02
-1.603612063577213726e-02
2.008846765315073363e-02
5.593079337119712113e-02
8.613139094334618107e-02
1.045709527981411174e-01
1.077528615929268657e-01
9.521450434945739894e-02
6.953361057306969850e-02
3.579751303861182510e-02
-2.011669895102177058e-04
-3.334142188787873190e-02
-6.042554722906186282e-02
-8.021254801498406417e-02
-9.339155224202837224e-02
-1.028710631183885199e-01
-1.167522970516804148e-01
-1.492618951424537765e-01
-2.014308851864872740e-01
-2.245015964961050159e-01
-1.355419532264857951e-01
1.328917518753585381e-01
5.179276890930860633e-01
7.472591388561389270e-01
6.041496335395879491e-01
2.116788845906738270e-01
-1.400564308015900816e-01
-2.924168875412916369e-01
-2.723835975662894371e-01
-1.870717105362494082e-01
-1.212567709630241602e-01
-9.463376896874398092e-02
-8.437610588563165814e-02
-7.769703188810593575e-02
-6.927849429111417046e-02
-5.821815223875845269e-02
-4.385673766196172829e-02
-2.562657932306221936e-02
-3.256326761459359467e-03
2.334298454258821806e-02
5.483737094788367766e-02
8.955189610544130041e-02
1.251689016739164495e-01
1.595680134457413968e-01
1.908261413470388190e-01
2.172174794376641183e-01
2.372138338373781796e-01
2.494969927747758554e-01
2.529624947747014518e-01
2.467042600491446414e-01
2.301143680937495772e-01
2.049367820501860893e-01
1.738941590544876570e-01
1.394059039584421289e-01
1.035862426781399143e-01
6.824422219388001642e-02
3.488351185391623532e-02
4.694179884872966280e-03
-2.145024690977771070e-02
-4.297973691581572636e-02
-5.969482657504545514e-02
-7.220926693015705666e-02
-8.127331898901926643e-02
-8.756436290799624045e-02
-9.168689799197364543e-02
-9.417254269434061076e-02
-9.547982066220063457e-02
-9.598440888279720362e-02
-9.597511399426715550e-02
-9.566681396210144350e-02
-9.520150590030238003e-02
-9.464830607138213781e-02
-9.400344988636456789e-02
-9.320123130219716556e-02
-9.228371220003656061e-02
-9.134487870087729111e-02
-9.040795568446788333e-02
-8.943197181766027182e-02
-8.831567034586948473e-02
-8.688611904099058370e-02
-8.489863902089454795e-02
-8.205006217869763308e-02
-7.796057171278690523e-02
-7.096707893914500076e-02
-5.946077495406867225e-02
-4.234243816759281076e-02
-1.902248733435071490e-02
1.057693638252490964e-02
4.592174979000798740e-02
8.170376622037095471e-02
1.117746992334034128e-01
1.315067806364400016e-01
1.377927604842840714e-01
1.290459070792570884e-01
1.055727401209743122e-01
7.270981543601892638e-02
3.691103950153398067e-02
3.012278608437447738e-03
-2.577679345623209994e-02
-4.788571401307225445e-02
-6.337682889922929830e-02
-7.439684233521391687e-02
-8.766843863910139811e-02
-1.155112652892046204e-01
-1.673604053640604106e-01
-2.080270352985383042e-01
-1.594915582224626649e-01
5.994853437296920190e-02
4.314614406101320854e-01
7.343774146674346692e-01
6.889330177205786887e-01
3.203195605028825721e-01
-6.682060713250208284e-02
-2.782122580697267145e-01
-2.967465725619435890e-01
-2.188566066624858253e-01
-1.453001525840341701e-01
-1.099724820481446652e-01
-9.675383698888526118e-02
-9.067089601102569507e-02
-8.348965970415597737e-02
-7.302375593074973692e-02
-5.985283171260954993e-02
-4.303348649592471376e-02
-2.220766101515179655e-02
2.693356582224477012e-03
3.153449793198528917e-02
6.409486897074230527e-02
9.855948328092928312e-02
1.329199294517863228e-01
1.652565043139672951e-01
1.937382129394459584e-01
2.166227686416040688e-01
2.322565929751537472e-01
2.390748157361992920e-01
2.352509111674736808e-01
2.205168226656350206e-01
1.974522126743736283e-01
1.684647418741375136e-01
1.357081143023351200e-01
1.010883678982148065e-01
6.626683083379777961e-02
3.265525234211626160e-02
1.415088524557552019e-03
-2.654249764904986764e-02
-5.055663634047842525e-02
-7.021692942301710483e-02
-8.556353910326376655e-02
-9.726941864059639176e-02
-1.060230784550514338e-01
-1.124344224718431401e-01
-1.170347481213394464e-01
-1.202767463390789632e-01
-1.225345015657599984e-01
-1.241034917472457616e-01
-1.252005883345642667e-01
-1.259641336931320577e-01
-1.264647440685137125e-01
-1.267190437752794829e-01
-1.267922925484243624e-01
-1.267735539884219664e-01
-1.267139699796268060e-01
-1.266243156612756326e-01
-1.264745811475556092e-01
-1.261939715276032270e-01
-1.256709068655053885e-01
-1.247530356134834428e-01
-1.232631895112614867e-01
-1.207674811687610567e-01
-1.160345387407740597e-01
-1.077959333718765400e-01
-9.486632275286152605e-02
-7.614345112076351119e-02
-5.055255993700105699e-02
-1.862142050097897669e-02
1.555719308584250365e-02
4.750276350042893087e-02
7.270265452501686876e-02
8.662211096180605363e-02
8.481970433065508241e-02
6.726504051432656561e-02
3.882464621152281053e-02
4.343340783364697116e-03
-3.161618401681280666e-02
-6.477336404355076016e-02
-9.096331233453122667e-02
-1.086097094927027801e-01
-1.223525466961795788e-01
-1.375003694701805446e-01
-1.594314654171729295e-01
-1.935917804626422212e-01
-2.443953970517342977e-01
-2.611845127967857838e-01
-1.453738677036605920e-01
1.428700848224436215e-01
5.364360401957386504e-01
7.146725286197940230e-01
5.223501541403949844e-01
1.156169303146007687e-01
-2.226684044094436599e-01
-3.597517277535645097e-01
-3.283888988313360957e-01
-2.430629668288815937e-01
-1.797149424474651369e-01
-1.565132612101770293e-01
-1.475215014989637308e-01
-1.417469221185660988e-01
-1.344007484038419187e-01
-1.242471154791824073e-01
-1.110157888770316043e-01
-9.400495147916153316e-02
-7.289565122139246567e-02
-4.769976141901268590e-02
-1.875998076683507015e-02
1.358675614586142381e-02
4.781416667980662588e-02
8.156424000994656753e-02
1.126956452446519069e-01
1.392781643662372448e-01
1.596016484719421369e-01
1.721777656697265069e-01
1.757401093329416242e-01
1.691417240564047353e-01
1.523647621576384170e-01
1.276116559110917204e-01
9.709137213255918109e-02
6.284812495262794008e-02
2.676539591128233517e-02
-9.427135303548762196e-03
-4.416270152122778181e-02
-7.603929445206437931e-02
-1.038196646872310419e-01
-1.266514042046532895e-01
-1.448370144983035512e-01
-1.589687608727489432e-01
-1.696124689128526153e-01
-1.773080205613296878e-01
-1.825716912274064352e-01
-1.859004607696777001e-01
-1.877665365681259746e-01
-1.886162065212881878e-01
-1.888673659322382958e-01
-1.887510824635449946e-01
-1.883509199549899815e-01
-1.877551483345018257e-01
-1.870343424161127754e-01
-1.862413822926911877e-01
-1.854119717281739188e-01
-1.845656601186229373e-01
-1.837045864613260637e-01
-1.828131946396736041e-01
-1.818582334231603204e-01
-1.808040959162076911e-01
-1.794833415818158362e-01
-1.774626761597307700e-01
-1.740850827328007666e-01
-1.684702474821248297e-01
-1.595116515211281727e-01
-1.458704497022138835e-01
-1.259129109012194214e-01
-9.747537545360496214e-02
-6.386484276007854677e-02
-2.970693422133786551e-02
8.018004119429902182e-04
2.389388484274239388e-02
3.623091622762317221e-02
3.490356412327295238e-02
1.786669869088776397e-02
-1.109123351669615183e-02
-4.552104276795031906e-02
-8.024085392650992521e-02
-1.113503988035962067e-01
-1.362310161579328160e-01
-1.522871508152902897e-01
-1.633195825958695113e-01
-1.771201846213530662e-01
-1.998272751798698399e-01
-2.359111437657852028e-01
-2.870935603683919535e-01
-2.989921413624382351e-01
-1.725005874391750127e-01
1.239209367639401982e-01
5.136016936890642759e-01
6.815789743239363263e-01
4.740293859431225498e-01
6.251220289269150687e-02
-2.634369059612399200e-01
-3.849700047737135145e-01
-3.466230865829986185e-01
-2.623719102611857257e-01
-2.048168976041147282e-01
-1.810941995961701800e-01
-1.718754755693947811e-01
-1.664395402858507289e-01
-1.587546898301146481e-01
-1.472779549419762357e-01
-1.330166570384176961e-01
-1.149416734028013976e-01
-9.267552605532038135e-02
-6.625529565822305123e-02
-3.612331034107004596e-02
-3.112585845069166298e-03
3.185287552892257512e-02
6.647414376329506547e-02
9.826374048101378655e-02
1.250948165688225699e-01
1.452011521797372529e-01
1.571797906237038522e-01
1.599986281990046499e-01
1.528781760673738332e-01
1.354207110718669560e-01
1.100060716670184513e-01
7.921771092239603129e-02
4.535184673324902521e-02
1.041746182046350555e-02
-2.386369626935238436e-02
-5.605711516396528343e-02
-8.502365157859302636e-02
-1.099444256032603845e-01
-1.302961745477346778e-01
-1.458979677674859809e-01
-1.572987047774474234e-01
-1.652785559015683414e-01
-1.705434835290006168e-01
-1.737243847424396748e-01
-1.753770913181419144e-01
-1.759823697259135789e-01
-1.759340784089956089e-01
-1.755007046283291183e-01
-1.748623152234035916e-01
-1.741239116260846487e-01
-1.733087120576455031e-01
-1.723598857005960439e-01
-1.713503506002228005e-01
-1.703373406944865831e-01
-1.693248036616401553e-01
-1.682634009202242653e-01
-1.670611827229175061e-01
-1.656203526917002788e-01
-1.638030015241405679e-01
-1.614178075790841105e-01
-1.582282589353845859e-01
-1.539308076546813675e-01
-1.468989100613463106e-01
-1.355225491351911282e-01
-1.187028325240361143e-01
-9.585199254373576172e-02
-6.688648490356881304e-02
-3.211281413117479666e-02
3.884333242049424137e-03
3.468546024252432830e-02
5.548963821376311917e-02
6.313511554499907918e-02
5.609931767112443651e-02
3.460940339230654528e-02
3.005335903014390297e-03
-3.218118392506538750e-02
-6.588227187180191458e-02
-9.464114986124780304e-02
-1.166015827065853133e-01
-1.306323597669805936e-01
-1.396845738320006136e-01
-1.533743056722846054e-01
-1.791942400728814277e-01
-2.220880408790052996e-01
-2.820938132078690819e-01
-2.508680557912620901e-01
-3.718936606616952967e-02
3.218155501467644952e-01
6.569670099413833508e-01
6.871490343304237358e-01
3.609567710369574467e-01
-4.001874033006196790e-02
-2.817245347445457293e-01
-3.222106581998185337e-01
-2.487568720465823946e-01
-1.701731754512581241e-01
-1.295759963427589312e-01
-1.137408596432575997e-01
-1.067392102348486416e-01
-9.934065725924459689e-02
-8.821905026157376983e-02
-7.443530943697788949e-02
-5.705527213877295556e-02
-3.554599188606880067e-02
-9.789487508656954592e-03
1.998201660730753934e-02
5.335894003445464107e-02
8.911255792689352917e-02
1.250076157114476394e-01
1.589016547587812356e-01
1.887705934773298289e-01
2.127087273132074463e-01
2.289287287502883850e-01
2.357556871736431470e-01
2.313998284854997534e-01
2.168129711360829159e-01
1.940805995670975004e-01
1.652403730851098873e-01
1.322501713294684800e-01
9.697003597797834717e-02
6.116459531013890977e-02
2.650389064415531806e-02
-5.439730309451249607e-03
-3.319184426146555567e-02
-5.569548733484048358e-02
-7.329804643234985595e-02
-8.659547177237710003e-02
-9.620094084243764609e-02
-1.027157408484618006e-01
-1.067091359742413509e-01
-1.087183295775084602e-01
-1.092484641899233028e-01
-1.087726215170807947e-01
-1.077317161484587921e-01
-1.064111131454567316e-01
-1.049142519661444284e-01
-1.033498038523325280e-01
-1.017715726739993609e-01
-1.002011193863468486e-01
-9.864252817029488252e-02
-9.708478117861235601e-02
-9.550312096095842085e-02
-9.385563963169765711e-02
-9.202208559665422949e-02
-8.994032100245800965e-02
-8.745128164925017322e-02
-8.408545928044158790e-02
-7.909698871724070435e-02
-7.143972998115871720e-02
-5.975055091954240005e-02
-4.255569685292367316e-02
-1.882265530827991959e-02
1.124496303564622920e-02
4.573177771903262634e-02
8.100787215673400932e-02
1.117287936383729863e-01
1.314039784326337390e-01
1.364247714460026240e-01
1.262276820682978196e-01
1.024718327796171197e-01
6.904154554462153814e-02
3.204727024335044666e-02
-2.435981552361129315e-03
-3.098830663730976764e-02
-5.174731860372781822e-02
-6.540651404619859943e-02
-7.522664371089368696e-02
-8.724989589975704063e-02
-1.170953929423883405e-01
-1.682680714292173474e-01
-2.008065646961132156e-01
-1.255328457757896310e-01
1.265669618668322227e-01
5.078005053269256663e-01
7.613980878246956463e-01
6.443289590036724857e-01
2.559699494262308028e-01
-1.012166043469916732e-01
-2.608424904923470899e-01
-2.462359040685312694e-01
-1.611152150998305388e-01
-9.740194774581489856e-02
-7.162306010542168755e-02
-6.235159222508798726e-02
-5.611927174058473078e-02
-4.793312250673061048e-02
-3.694425671014314738e-02
-2.244769468834392073e-02
-3.963717648676859037e-03
1.875494020226832828e-02
4.579805225963397286e-02
7.669090875145180564e-02
1.101677900277052286e-01
1.447031184722862851e-01
1.785259231693642201e-01
2.096198399032906390e-01
2.357277982349001988e-01
2.544055976901536398e-01
2.638549369707988146e-01
2.634731527304384202e-01
2.532887065471218779e-01
2.339598993072188049e-01
2.067730888437706860e-01
1.736423378659232852e-01
1.371094139589976446e-01
9.997671175139022370e-02
6.410422173242041888e-02
3.107987502778545783e-02
2.033586844829717889e-03
-2.236649372737711458e-02
-4.191383856847891859e-02
-5.686354052676376863e-02
-6.792560597097525854e-02
-7.578162205756919234e-02
-8.103459761841844133e-02
-8.432873960230387322e-02
-8.621246431809391486e-02
-8.712590912776616014e-02
-8.740718661956632662e-02
-8.730001026070424719e-02
-8.695529528615020265e-02
-8.642138042297843603e-02
-8.575683841439329935e-02
-8.508969110039647787e-02
-8.450322693708454957e-02
-8.403326381928323541e-02
-8.366744431786297953e-02
-8.333890178445797770e-02
-8.292925199033152062e-02
-8.227259178129331385e-02
-8.115554744188183123e-02
-7.932927410286651215e-02
-7.647707971185777054e-02
-7.090248126682981156e-02
-6.091966371650787970e-02
-4.534686734357457755e-02
-2.350827850083947804e-02
4.747961000992499681e-03
3.914984317335059444e-02
7.481172347597514483e-02
1.049718349138286516e-01
1.246595573011236996e-01
1.307098690558946286e-01
1.217618793149191497e-01
9.837262811934885387e-02
6.528303821739570023e-02
2.922851153694449103e-02
-4.701370387966188544e-03
-3.319565979417856555e-02
-5.472818353395147301e-02
-6.929903247201103789e-02
-8.009033505117345297e-02
-9.551221785427391198e-02
-1.262824364717497205e-01
-1.802053227762623888e-01
-2.106268367732326841e-01
-1.326196868702966547e-01
1.256690326069438701e-01
5.040079838395132850e-01
7.401743759674905832e-01
5.905483966748842350e-01
1.954355088003511265e-01
-1.524136047663562088e-01
-2.972343667000021949e-01
-2.713132336435959413e-01
-1.871952608559458442e-01
-1.266664747137593583e-01
-1.043951886079518415e-01
-9.620474892375992237e-02
-9.055145183429084976e-02
-8.277966768190730962e-02
-7.230466402808187476e-02
-5.841452192400123367e-02
-4.060777600198410553e-02
-1.865637657962154056e-02
7.494485649271119890e-03
3.811261667778503837e-02
7.135064182329547977e-02
1.050188778904168063e-01
1.370764261735966660e-01
1.656315391193654840e-01
1.889446324614690031e-01
2.054259242022750676e-01
2.136341439324304370e-01
2.122765313371105800e-01
2.000141712629872615e-01
1.778999994687857633e-01
1.488350457557726658e-01
1.153947245335396332e-01
7.982732274053219723e-02
4.405441261232168754e-02
9.670851681568457328e-03
-2.205521722201434637e-02
-5.018236597157778311e-02
-7.409588114322591956e-02
-9.350776401593664799e-02
-1.084801998421028729e-01
-1.196392144306554911e-01
-1.277288386488959759e-01
-1.334082160591342214e-01
-1.372523384984531414e-01
-1.397547071903709748e-01
-1.413255434003306832e-01
-1.422904739947609964e-01
-1.428905266498962934e-01
-1.432821298517792941e-01
-1.435318847430929468e-01
-1.436490328142484285e-01
-1.437223884772590443e-01
-1.438134621873807806e-01
-1.439385997530135686e-01
-1.440689823357012289e-01
-1.441306264501319989e-01
-1.440043839641381718e-01
-1.435259420986957635e-01
-1.424858234279256231e-01
-1.406677657300134110e-01
-1.373475826211828510e-01
-1.310164184364825124e-01
-1.203397320688535804e-01
-1.042155752822481185e-01
-8.177196484473084337e-02
-5.227146144578108389e-02
-1.781580528446442477e-02
1.603228121188391905e-02
4.417492519672801959e-02
6.216558630179808836e-02
6.624164186213586658e-02
5.353987289751239997e-02
2.679872601887324512e-02
-7.407929792866863039e-03
-4.357890978979035712e-02
-7.742081131332287369e-02
-1.058480137941471833e-01
-1.270479839807572842e-01
-1.415625024057151349e-01
-1.520432594213571298e-01
-1.671843132449551683e-01
-2.022424898071267241e-01
-2.555912083741167518e-01
-2.757643380364862562e-01
-1.747517866623965466e-01
1.109072317586254908e-01
4.944828770109011007e-01
6.810132641158926914e-01
4.830415574861193773e-01
6.971882842648211009e-02
-2.493342512751076934e-01
-3.635393047182559623e-01
-3.201075481735680683e-01
-2.352966041058620339e-01
-1.816429347198004474e-01
-1.605225862161869799e-01
-1.529003195455819475e-01
-1.474555291197802709e-01
-1.389289012922013400e-01
-1.275698853553434986e-01
-1.130498841939448912e-01
-9.458683102308484969e-02
-7.194947558128056420e-02
-4.527207520859938966e-02
-1.500941089556109137e-02
1.833024927995353937e-02
5.255739571490462142e-02
8.525584658360993440e-02
1.142680040793649932e-01
1.376947913972395854e-01
1.538942606566835181e-01
1.614815897295859559e-01
1.593283988348290769e-01
1.464263844820494209e-01
1.243339738230193059e-01
9.558569775276203051e-02
6.249410883163453861e-02
2.714978128539312016e-02
-8.578688994834611503e-03
-4.304552633009511853e-02
-7.484781857156570795e-02
-1.028263993798171072e-01
-1.260521445935143536e-01
-1.443124657004598299e-01
-1.582892237013465708e-01
-1.686935431887830183e-01
-1.761856598604420454e-01
-1.813749435175812108e-01
-1.848198980650421763e-01
-1.870267437896112328e-01
-1.884129628002962631e-01
-1.893041204925259846e-01
-1.899557968392664997e-01
-1.904289606316206251e-01
-1.907595809743609649e-01
-1.909746361078721311e-01
-1.910787318898676534e-01
-1.910541017953890364e-01
-1.908606069168086172e-01
-1.904370012940233003e-01
-1.897361534072217748e-01
-1.887296914563756922e-01
-1.873690698293989099e-01
-1.856790820007533926e-01
-1.831365192858681323e-01
-1.787059289795944195e-01
-1.713248236813952330e-01
-1.599055214002107206e-01
-1.433351455544367992e-01
-1.204746331263401860e-01
-8.975516188618258562e-02
-5.405273005687931398e-02
-1.958430711075087247e-02
8.546515687776676945e-03
2.639088727201368764e-02
3.115469677308003310e-02
2.119857351985934141e-02
-3.155283429928849512e-03
-3.602324050037361558e-02
-7.087670059161516045e-02
-1.029240508985199143e-01
-1.291200776561783614e-01
-1.481306140344178235e-01
-1.589887120173307800e-01
-1.681133273999500521e-01
-1.853482178771743705e-01
-2.175877511335295722e-01
-2.696325402326732457e-01
-3.013202412990190204e-01
-1.913783996480632188e-01
9.315449816491670754e-02
4.712982198139838430e-01
6.794874423130353724e-01
4.949555422221902368e-01
8.681556462907730198e-02
-2.445668884709278346e-01
-3.703655641419870692e-01
-3.330000204876655268e-01
-2.492819278071197464e-01
-1.916124099452566065e-01
-1.672326198895272009e-01
-1.578584747708110247e-01
-1.522313580448536874e-01
-1.438698975718898099e-01
-1.310625066655656812e-01
-1.155173663772797593e-01
-9.626963398754473378e-02
-7.287171662141375683e-02
-4.543642904198384735e-02
-1.452901665567600878e-02
1.886333722197568868e-02
5.361509882917841335e-02
8.755991789041257800e-02
1.181309723918330390e-01
1.431788710746459414e-01
1.609717143276026829e-01
1.701950941870103706e-01
1.699520943366941428e-01
1.594012655068076378e-01
1.390670982791188115e-01
1.117528861925367323e-01
7.998804445943730190e-02
4.598737470031456082e-02
1.165483019557314766e-02
-2.141693817585275939e-02
-5.194687919340069959e-02
-7.896485408976007536e-02
-1.018115659406799711e-01
-1.201375262926401843e-01
-1.340225799466117362e-01
-1.441694170751787463e-01
-1.512859063121622660e-01
-1.559958400766898456e-01
-1.588425892125847061e-01
-1.602891029883789509e-01
-1.607179090973061553e-01
-1.604311136573045027e-01
-1.596504012110163961e-01
-1.585170347257869594e-01
-1.570881072090315744e-01
-1.553577991841794403e-01
-1.534494768265435849e-01
-1.514771668114657799e-01
-1.495080089457865302e-01
-1.475620360147532062e-01
-1.456119616983913845e-01
-1.435835643117648608e-01
-1.413557370903524291e-01
-1.387604881900454390e-01
-1.355977546783001253e-01
-1.314618378467813375e-01
-1.248193287376903604e-01
-1.141672574919188332e-01
-9.831025024119205424e-02
-7.636052910803632632e-02
-4.769455364015438154e-02
-1.277912365416421052e-02
2.312784834467895845e-02
5.454247650431481853e-02
7.689015247279129550e-02
8.649428699421307654e-02
8.054169196550518828e-02
5.880290057982658775e-02
2.767494344268580167e-02
-6.535381870189772499e-03
-3.906566098002565296e-02
-6.669710760716426878e-02
-8.775443816504037431e-02
-1.020960314594214352e-01
-1.107612023943904817e-01
-1.244847626822547099e-01
-1.470958773894050220e-01
-1.681982251669247586e-01
-1.631724942690299107e-01
-9.317638255314025786e-02
9.485540252024340924e-02
4.524563093075141262e-01
7.421215756560761712e-01
6.724572861865257822e-01
2.952202328851679658e-01
-8.000968073694987581e-02
-2.654203312540016069e-01
-2.649264122597586590e-01
-1.916305439849004810e-01
-1.228970541338418876e-01
-8.950400294782451249e-02
-7.729024404283732497e-02
-7.083041904819573076e-02
-6.275440389436802435e-02
-5.171012734284276269e-02
-3.787311736825408476e-02
-2.035019164921413742e-02
1.216336347996770876e-03
2.689442979001930439e-02
5.680516489865237301e-02
9.034927099925144089e-02
1.253179718297701972e-01
1.596009619047698558e-01
1.912393504358055052e-01
2.184255947592019798e-01
2.394949880802502429e-01
2.529172876317269947e-01
2.573116768261468623e-01
2.513554230854514460e-01
2.349110748325310971e-01
2.104221559682228904e-01
1.803260880112944053e-01
1.468187386830222541e-01
1.118544219072701712e-01
7.714594712646380414e-02
4.417201917696991081e-02
1.418513127899668179e-02
-1.180188587848446206e-02
-3.302967817022129521e-02
-4.946285791693282724e-02
-6.179623365148641939e-02
-7.071377923220328876e-02
-7.683657640899584085e-02
-8.072281482339456471e-02
-8.286782922154251052e-02
-8.371073156438563201e-02
-8.364206323209076588e-02
-8.299132757292793094e-02
-8.202375506359579904e-02
-8.087829369551031988e-02
-7.962681709617455694e-02
-7.833694527809385855e-02
-7.705862769733363982e-02
-7.582414325371346353e-02
-7.464807107827037269e-02
-7.352102004457720941e-02
-7.240182026816290028e-02
-7.122971417614247513e-02
-6.992266476140068798e-02
-6.819464830696392310e-02
-6.546592483545961294e-02
-6.091309968432963295e-02
-5.346945137678096871e-02
-4.182493162177105400e-02
-2.442619188850189346e-02
5.782708244020921427e-04
3.191982490235459324e-02
6.620572832258270202e-02
9.961390055574868840e-02
1.278928666493340249e-01
1.463595006553802536e-01
1.499038904285379392e-01
1.362233956627977582e-01
1.103991667748728395e-01
7.792139231590232418e-02
4.352240298630803694e-02
1.118387705808661023e-02
-1.587355005247799433e-02
-3.563798233391432535e-02
-4.873334213817426264e-02
-5.831722234953705397e-02
-7.317160864596042313e-02
-1.073456636967316524e-01
-1.607939071011306731e-01
-1.835898053926038609e-01
-8.829125421900085868e-02
1.949231715512130814e-01
5.788506359216633035e-01
7.845880793456887492e-01
6.066404996445168285e-01
1.965089298902480963e-01
-1.395747017339083185e-01
-2.746140742193726170e-01
-2.436111433217352240e-01
-1.588798871316428052e-01
-9.962801347972918831e-02
-7.524621544269004259e-02
-6.648635725286834719e-02
-6.109242243980259057e-02
-5.303420583165964486e-02
-4.207423016527429144e-02
-2.804817333897378570e-02
-1.018066557851785361e-02
1.179837559385111916e-02
3.787273815933963478e-02
6.829998227785998022e-02
1.019464801051247343e-01
1.365498434940911332e-01
1.700144697758686485e-01
2.004113177348731123e-01
2.259755099264959266e-01
2.451078741096474889e-01
2.563761727995546025e-01
2.585151088975009559e-01
2.502736612954266637e-01
2.314256751063262230e-01
2.046630746391847333e-01
1.726422976856280822e-01
1.376959729289220224e-01
1.018329199440589916e-01
6.673814919766218878e-02
3.377286204808490483e-02
3.974450745312782009e-03
-2.194350156895309018e-02
-4.359121572457664434e-02
-6.088690746506827262e-02
-7.408194675685525477e-02
-8.386253597418490136e-02
-9.089981781641010006e-02
-9.578284515611301675e-02
-9.901750576828852179e-02
-1.010270901093304197e-01
-1.021529268815468822e-01
-1.026543889228191953e-01
-1.027088978909168199e-01
-1.024240641101422378e-01
-1.018668206624118444e-01
-1.011169624304595199e-01
-1.002862778678411115e-01
-9.945425871574099796e-02
-9.866547249339878423e-02
-9.792956249810952363e-02
-9.722124780522375942e-02
-9.648032326814720561e-02
-9.561165723066825106e-02
-9.448629969716176857e-02
-9.274321880729355372e-02
-8.927810801050978240e-02
-8.286778436408513693e-02
-7.228391745253362477e-02
-5.629269982218011031e-02
-3.361865244776005013e-02
-3.828544048097943728e-03
2.959836011806019074e-02
6.235726410203849823e-02
9.001639704872235748e-02
1.080005271434960196e-01
1.116021807634330620e-01
9.840980602755092232e-02
7.281690500647133857e-02
3.996421899439599884e-02
4.521432219129931790e-03
-2.931282815783117085e-02
-5.781099204139587139e-02
-7.926199614444764951e-02
-9.379156353928511103e-02
-1.039925817180524098e-01
-1.178042365740243347e-01
-1.485236646018627260e-01
-2.024968143147503064e-01
-2.336400422353190065e-01
-1.611272436269958475e-01
8.735633767707751129e-02
4.667068143593089968e-01
7.245821216377766882e-01
6.119915501969523941e-01
2.299505790473885536e-01
-1.397620178599049134e-01
-3.138294446901798707e-01
-3.085873170078278216e-01
-2.266503945323770364e-01
-1.586874920184584148e-01
-1.305292321828147029e-01
-1.208045206230887597e-01
-1.151909894378734256e-01
-1.080051671586284984e-01
-9.799399762369376266e-02
-8.473359233774840904e-02
-6.761145211189638349e-02
-4.634274405720403139e-02
-2.091691269073170378e-02
8.683444384719260153e-03
4.189381709074321836e-02
7.651387614551947991e-02
1.104095565386037786e-01
1.415953122369901784e-01
1.682471974081947985e-01
1.886900875116754583e-01
2.013932146185933025e-01
2.049701674049723976e-01
1.981116526141463163e-01
1.807713825794255436e-01
1.552315617313307083e-01
1.237785889592802197e-01
8.851423636968343278e-02
5.136438015903252441e-02
1.410810821673263646e-02
-2.164987017030314820e-02
-5.448947231766369109e-02
-8.317528112121667927e-02
-1.068038618176983534e-01
-1.255854577856762577e-01
-1.401153674228154955e-01
-1.509524201029253110e-01
-1.586186952190909161e-01
-1.636151434082729339e-01
-1.664767937149358723e-01
-1.677219893839130282e-01
-1.678323249699558983e-01
-1.672526450260536923e-01
-1.662909615249478223e-01
-1.650788341186797403e-01
-1.637553006962971514e-01
-1.624416037803039781e-01
-1.612411905266603329e-01
-1.602292315897691222e-01
-1.594133790252558192e-01
-1.587687594518278345e-01
-1.582527018376301553e-01
-1.578047108422653000e-01
-1.573694716645024361e-01
-1.567090055521194736e-01
-1.552719231389638466e-01
-1.522951242209531209e-01
-1.468048321135957401e-01
-1.376174672994133763e-01
-1.233431109220544664e-01
-1.021848426079058764e-01
-7.278684204356572485e-02
-3.932899552630540752e-02
-6.461038406104962703e-03
2.161687982948550316e-02
4.115419555538993301e-02
4.884993100901905555e-02
4.185269429023293075e-02
1.941592486706822732e-02
-1.261347461917071248e-02
-4.803519751782139163e-02
-8.205894518388989756e-02
-1.113019115773342671e-01
-1.337897734260019844e-01
-1.470736702788106309e-01
-1.570784111505682257e-01
-1.739553937816303575e-01
-2.035415261471240078e-01
-2.473343605960034164e-01
-2.951071402895115159e-01
-2.579633987532263251e-01
-5.593855756024488507e-02
3.025987521541529390e-01
6.317466291008602131e-01
6.303328589570998952e-01
2.883279374991074562e-01
-1.098563011461308192e-01
-3.407952225824980586e-01
-3.680389130958566235e-01
-2.972646675091553670e-01
-2.241525362952794254e-01
-1.870551518549725678e-01
-1.731871082757426294e-01
-1.664288943299983836e-01
-1.601508501192826783e-01
-1.507688615518134878e-01
-1.377352407836772152e-01
-1.213184954328732357e-01
-1.007163270536264588e-01
-7.575858908759522392e-02
-4.673788577052213900e-02
-1.439856685852052356e-02
2.006748103317019041e-02
5.532691002662552121e-02
8.894303564417548047e-02
1.183218802874229370e-01
1.413389769613867253e-01
1.563393692745184971e-01
1.621460384856951153e-01
1.581041419949605897e-01
1.437571772625563515e-01
1.201240293537556708e-01
8.992352245347660922e-02
5.563130375110950099e-02
1.944065308222872254e-02
-1.673801216471486678e-02
-5.127720612800512612e-02
-8.283237447257423003e-02
-1.103497991188851779e-01
-1.331103404120293765e-01
-1.507650383971728680e-01
-1.638659911076835729e-01
-1.732027505459710071e-01
-1.794932594010286431e-01
-1.833838510484534223e-01
-1.854492495504455329e-01
-1.861925696557990562e-01
-1.860453167999098767e-01
-1.853625196198817882e-01
-1.843941702904111080e-01
-1.833046110606511847e-01
-1.821865264846184718e-01
-1.810609933568851637e-01
-1.798780013947588186e-01
-1.784441471680894287e-01
-1.768653621373549867e-01
-1.753853211085807107e-01
-1.740910037303060598e-01
-1.729156005822369280e-01
-1.716567560669091108e-01
-1.699646680495126294e-01
-1.673328439781595622e-01
-1.630980614361300096e-01
-1.564403681418641279e-01
-1.464452382479816128e-01
-1.311194204788085349e-01
-1.089984030017765865e-01
-8.023887127141897391e-02
-4.661641576231524003e-02
-1.149723686455822978e-02
2.036507334433166477e-02
4.276108519478483833e-02
5.132212988479886023e-02
4.446372567700978412e-02
2.332469942486166750e-02
-7.969004299854790321e-03
-4.324475073465525177e-02
-7.738689106218263336e-02
-1.066064096971890696e-01
-1.274147417251823566e-01
-1.408136225592461765e-01
-1.532767319941066297e-01
-1.705022215015070397e-01
-1.972931218192624792e-01
-2.375573429512189971e-01
-2.840781311146158838e-01
-2.454920179015394888e-01
-4.265273528933243713e-02
3.204776626875881496e-01
6.538328697048546578e-01
6.438233646856100778e-01
2.979073310069936809e-01
-9.630624209547460068e-02
-3.250553035980087158e-01
-3.542194123327476740e-01
-2.776486910172291100e-01
-2.002297772271998677e-01
-1.628956333732414774e-01
-1.485525033168018649e-01
-1.414943747916256045e-01
-1.336086947130117331e-01
-1.228296129641722745e-01
-1.092160593846795980e-01
-9.192257132602384140e-02
-7.057210809606428992e-02
-4.508637506104185705e-02
-1.563860700835295256e-02
1.773565581665915644e-02
5.313258819968896124e-02
8.827736771176519781e-02
1.210925258614021088e-01
1.496880697228070434e-01
1.723613848504798873e-01
1.875976258840818256e-01
1.940710020807352165e-01
1.906027166443864662e-01
1.764802921538092817e-01
1.538493784171890977e-01
1.252419918180115443e-01
9.291166207749840256e-02
5.884811957335221722e-02
2.479593917950650983e-02
-7.745249893495094809e-03
-3.752076409840168769e-02
-6.352086555134814350e-02
-8.498134578018880225e-02
-1.016762434315541808e-01
-1.142691199806607910e-01
-1.234968313549885122e-01
-1.299857991831529502e-01
-1.342718145013783171e-01
-1.368276517503460576e-01
-1.380634219994119061e-01
-1.383266764325713771e-01
-1.379028407972866799e-01
-1.370148517118508491e-01
-1.357677571795455895e-01
-1.341795697009578736e-01
-1.322905978242137903e-01
-1.301713666741316222e-01
-1.279013247317913882e-01
-1.255361228582992095e-01
-1.231071418437886394e-01
-1.206214924074243550e-01
-1.180620151974010740e-01
-1.153872807909410575e-01
-1.126178962080803814e-01
-1.094954751046494645e-01
-1.048283079549028468e-01
-9.740074682363375480e-02
-8.606120888854265627e-02
-6.975235674337096348e-02
-4.751158729146578302e-02
-1.826336200007174643e-02
1.751036723044822538e-02
5.322416724768898322e-02
8.293910250961104846e-02
1.023186186088806404e-01
1.086263927932469564e-01
1.007026707494946133e-01
7.898441370106049075e-02
4.706006223393571081e-02
1.175774328749702030e-02
-2.147998099803631600e-02
-4.913952785641415716e-02
-6.963629389544441495e-02
-8.331465509691586557e-02
-9.217703342396439681e-02
-1.028651814091840477e-01
-1.309754185383053549e-01
-1.798379268045287582e-01
-2.194611552164201507e-01
-1.625079500411392430e-01
6.395979020900936785e-02
4.396584174300716130e-01
7.257016758102036169e-01
6.641645138213424504e-01
2.934279377863997507e-01
-8.363988871054382768e-02
-2.784055798546069549e-01
-2.888009432420645117e-01
-2.071428062397506209e-01
-1.365917835792024304e-01
-1.030915792354717836e-01
-9.223570182229255676e-02
-8.575883943731137105e-02
-7.847012425585052353e-02
-6.845000088217671752e-02
-5.531761148326373723e-02
-3.839178293118212376e-02
-1.730942646259062828e-02
7.978798811306598779e-03
3.725773140834188341e-02
7.024979631212589781e-02
1.050799794277552518e-01
1.396063298313389156e-01
1.718107968934242391e-01
1.997992134860402391e-01
2.218004482389945020e-01
2.361544503651658022e-01
2.413151360813982627e-01
2.353578970210135624e-01
2.188972255069342177e-01
1.946151009975855273e-01
1.649361379102536052e-01
1.320211609110587270e-01
9.776720491487086995e-02
6.380751508540363770e-02
3.151275391781201834e-02
2.009158604132786369e-03
-2.382522081884292514e-02
-4.537568037434411283e-02
-6.230195885518555882e-02
-7.486369884697782751e-02
-8.380740416657199432e-02
-8.983240843074577486e-02
-9.355704854590848885e-02
-9.551859161945687460e-02
-9.617424254250772631e-02
-9.591733073641857399e-02
-9.507452645107199174e-02
-9.389187553020345023e-02
-9.253435401852787290e-02
-9.108609582934207305e-02
-8.960406827367795035e-02
-8.819190702894036393e-02
-8.692877235977349015e-02
-8.585919284729549850e-02
-8.499104938893786709e-02
-8.426093997364401955e-02
-8.353888154690675139e-02
-8.265918930370920459e-02
-8.143546111107462238e-02
-7.953421616937948746e-02
-7.582641615530619217e-02
-6.904708346018360865e-02
-5.794386904557916051e-02
-4.127717435747507713e-02
-1.782042580265141146e-02
1.336856931733714643e-02
4.892034118847633783e-02
8.399883157315077287e-02
1.139817864524010071e-01
1.344607560258404277e-01
1.412410947117047344e-01
1.308424418856325433e-01
1.063223847436513964e-01
7.390931461353975052e-02
3.877197941587452734e-02
5.059613974179595630e-03
-2.410296538844138720e-02
-4.669319409743621918e-02
-6.265150542096543929e-02
-7.457950559207979224e-02
-8.961968262173042321e-02
-1.207333678300989005e-01
-1.750345472835449778e-01
-2.091543055710931021e-01
-1.417032949452717017e-01
1.024937991607286353e-01
4.831185848522568937e-01
7.477676069617357202e-01
6.464847913346938313e-01
2.549141677927578287e-01
-1.083423925359631446e-01
-2.807903774363722516e-01
-2.713369121712366772e-01
-1.869765418482450536e-01
-1.206553831019173406e-01
-9.267570495078197856e-02
-8.277957185019706177e-02
-7.723122421464571896e-02
-6.961135332877695092e-02
-5.956493544267827539e-02
-4.635001194387091544e-02
-2.935962981664066301e-02
-8.279026495677051581e-03
1.702517358291698660e-02
4.661861634485093414e-02
7.909829974677921871e-02
1.127292355767473553e-01
1.457280507506183154e-01
1.762633880806765974e-01
2.024559062757190775e-01
2.223782799409714794e-01
2.340551995781593730e-01
2.355685803406480372e-01
2.267701381193557852e-01
2.089636968431252961e-01
1.836470629241023222e-01
1.524866516018429652e-01
1.173120459040012387e-01
8.011570093361393419e-02
4.305296109581854824e-02
8.440955074002904485e-03
-2.202660463601280316e-02
-4.807806205040446312e-02
-6.965933728978347672e-02
-8.687648944599304923e-02
-1.000036931054051753e-01
-1.094844529018006579e-01
-1.159226567870925012e-01
-1.200820552722219881e-01
-1.227868815137670849e-01
-1.243871226026389276e-01
-1.251925174837521249e-01
-1.254786940099751058e-01
-1.254643596979296005e-01
-1.253110795386576104e-01
-1.251163092803865284e-01
-1.249120067470526896e-01
-1.246506608753601419e-01
-1.243324522332288767e-01
-1.240846076279789184e-01
-1.239509984061854114e-01
-1.238844312069928844e-01
-1.237457403638301673e-01
-1.233037050980851923e-01
-1.222351008665738259e-01
-1.201301650803198867e-01
-1.164627540558890173e-01
-1.094961414534118410e-01
-9.757178552420864293e-02
-7.965032176528112628e-02
-5.531156291927722540e-02
-2.467754620870801774e-02
1.016896867881306350e-02
4.314466777526933944e-02
6.881479085118749617e-02
8.298934520968287432e-02
8.272221396669794669e-02
6.625361491322447061e-02
3.681166220796303762e-02
1.472013026136000579e-03
-3.414253821969781555e-02
-6.603080169030731139e-02
-9.181526475749604566e-02
-1.107423343107992314e-01
-1.234802390915156478e-01
-1.323243812555822962e-01
-1.533868933878362040e-01
-1.943917113431627430e-01
-2.495593240372459554e-01
-2.620368323145522149e-01
-1.200415164571467797e-01
1.914187497311691522e-01
5.658077688567512142e-01
7.049152798360153183e-01
4.543573577080717296e-01
4.065779797311801225e-02
-2.568168446226947177e-01
-3.457765651732786494e-01
-2.911184883106358590e-01
-2.093187527338633003e-01
-1.612317199643300003e-01
-1.424299589402152899e-01
-1.356610579508105430e-01
-1.310395571158172179e-01
-1.231604046603342606e-01
-1.110986405826576290e-01
-9.618200876227143981e-02
-7.725345481668283165e-02
-5.403071395128153376e-02
-2.669433479868029910e-02
4.124128645714664372e-03
3.738767671429974598e-02
7.175298907405600057e-02
1.047039737979179319e-01
1.338189845884394380e-01
1.570349733591512309e-01
1.726478988099963696e-01
1.793116226300784655e-01
1.759321809379602863e-01
1.613450278139733352e-01
1.377331044699285356e-01
1.078061219202904042e-01
7.397845755370104082e-02
3.836820973511986116e-02
2.797083863213672104e-03
-3.121664151607626836e-02
-6.246222880411719802e-02
-9.002620987699018473e-02
-1.132913956344488438e-01
-1.319375246282899206e-01
-1.461324784657578590e-01
-1.566212942992813995e-01
-1.641447330642790969e-01
-1.693607611189656692e-01
-1.728443996354495082e-01
-1.750772937393361428e-01
-1.764409366927343070e-01
-1.772324164700957438e-01
-1.776660264686646673e-01
-1.778732660269411181e-01
-1.778808442190270289e-01
-1.777129447793558414e-01
-1.774830274770166361e-01
-1.772583053274512654e-01
-1.770557406292574965e-01
-1.768481467068025170e-01
-1.765685638475645025e-01
-1.761007362413529453e-01
-1.752780793107399926e-01
-1.738836797110575039e-01
-1.716956080522648032e-01
-1.682739344314136132e-01
-1.617101864175790604e-01
-1.503629527740110716e-01
-1.331817178716743211e-01
-1.097075055997893678e-01
-8.007338662818588859e-02
-4.519655062244863630e-02
-1.025768205414549425e-02
1.838986217476077517e-02
3.602538795791487836e-02
3.957175215389222012e-02
2.758603417878539507e-02
1.680282686386734732e-03
-3.184173666034195022e-02
-6.717119594739744126e-02
-9.986046816083857247e-02
-1.268323307124187005e-01
-1.467099682336490962e-01
-1.599588909993914509e-01
-1.693800182609366267e-01
-1.842464130271708189e-01
-2.197766228055378912e-01
-2.723873038183533546e-01
-2.904239316762730616e-01
-1.853446149647020591e-01
1.040169724351471814e-01
4.874506746716658068e-01
6.685395888155964972e-01
4.676994360490148717e-01
5.407621854521429960e-02
-2.619856299730467519e-01
-3.748744836639418265e-01
-3.311483617526324585e-01
-2.448060568911577251e-01
-1.901832298386851861e-01
-1.700315922658999224e-01
-1.617954518919490770e-01
-1.553660165893281098e-01
-1.463658019648102493e-01
-1.347410772391713918e-01
-1.196776533863700698e-01
-1.006567535928064028e-01
-7.748217489945297132e-02
-5.027195493631922418e-02
-1.909547483044614705e-02
1.515001124507545788e-02
5.000217953357023737e-02
8.319371223560334538e-02
1.126986041229286195e-01
1.367307783747978567e-01
1.537378995231623857e-01
1.624063690475795463e-01
1.616638988564899904e-01
1.505385905341905806e-01
1.299074416293878598e-01
1.024698476073689357e-01
7.067653554852933173e-02
3.668727641633867664e-02
2.370885057295280159e-03
-3.069477979899814385e-02
-6.122281553987332647e-02
-8.821727566961903855e-02
-1.109731698094441610e-01
-1.290998403318250054e-01
-1.429539118526410857e-01
-1.532815808316897455e-01
-1.607547643852750285e-01
-1.659684791651289959e-01
-1.694408413584408413e-01
-1.716111344705542885e-01
-1.728288736187640062e-01
-1.733614157582311910e-01
-1.733992017348347237e-01
-1.730558490179065212e-01
-1.723904459238063402e-01
-1.714306103839222106e-01
-1.700994657055759363e-01
-1.685813056415020328e-01
-1.670573596823277662e-01
-1.656127704083218410e-01
-1.642365934893979529e-01
-1.628217976851109305e-01
-1.611652648446637304e-01
-1.589677676890964841e-01
-1.558258733485257397e-01
-1.512310879019947985e-01
-1.446862784207453845e-01
-1.338692550635155742e-01
-1.168251245433174074e-01
-9.288189637183225100e-02
-6.266438584182934535e-02
-2.808610734881998236e-02
7.654283612740818594e-03
3.883309414143878285e-02
5.927236524275748819e-02
6.530397792292648440e-02
5.584954162181444970e-02
3.243127572732600050e-02
3.151680239893324409e-04
-3.445715476618699258e-02
-6.708960852415818410e-02
-9.402171370137134276e-02
-1.110129933825090842e-01
-1.226024689000178303e-01
-1.362200998799625307e-01
-1.572182932355615792e-01
-1.888445769756146864e-01
-2.322360965141385958e-01
-2.674583573053509467e-01
-1.744543727438008507e-01
1.022432160274565904e-01
4.816075394057283687e-01
7.120129137912366568e-01
5.540536238801190283e-01
1.512562115091286852e-01
-1.927461512547399558e-01
-3.343375390991461527e-01
-3.080501436293606732e-01
-2.274205319931555669e-01
-1.649676746320693499e-01
-1.389552922259267020e-01
-1.297665995184771603e-01
-1.236732236808762708e-01
-1.148630145217899856e-01
-1.036542443830106852e-01
-8.913944141682510203e-02
-7.071265136403837026e-02
-4.809482091447325747e-02
-2.128299067792165794e-02
9.913259557092116148e-03
4.449468507003184053e-02
8.016422723697111397e-02
1.147877737729626618e-01
1.464009397454533457e-01
1.732065986660381862e-01
1.935697232907843957e-01
2.060235466313256603e-01
2.092710303130720095e-01
2.019969740120755308e-01
1.842001058212610620e-01
1.586334100551435589e-01
1.279221580015230952e-01
9.437256660653478568e-02
5.997179993236029932e-02
2.639281376202980839e-02
-4.994844655392962143e-03
-3.313753081615431612e-02
-5.730065455830243154e-02
-7.706868006159575679e-02
-9.233837904959503462e-02
-1.034584367736384181e-01
-1.111575940478079505e-01
-1.161114319952761265e-01
-1.189131916465541866e-01
-1.200796601887935411e-01
-1.200651566706752993e-01
-1.192458481269825787e-01
-1.179155605869947748e-01
-1.162857790744852293e-01
-1.144856475742489915e-01
-1.125636261875311989e-01
-1.106079244905607967e-01
-1.087170387378578879e-01
-1.069516748080191204e-01
-1.053284701257487244e-01
-1.038041085304689803e-01
-1.022925956972779160e-01
-1.006701473292158228e-01
-9.877518915725852500e-02
-9.642189184375822564e-02
-9.327909526337035961e-02
-8.807642844476291921e-02
-7.946031896795351102e-02
-6.620755803015389296e-02
-4.723274948832162368e-02
-2.160226574880799028e-02
1.123054571077751300e-02
4.723803946107290458e-02
8.119136840344766404e-02
1.084105637078709300e-01
1.247645348128090387e-01
1.266710694252445313e-01
1.116672395593194672e-01
8.400143092110268217e-02
5.026888656676317679e-02
1.573975822970565680e-02
-1.567772259948178870e-02
-4.144471293898090852e-02
-6.039175831577695691e-02
-7.133018669341795182e-02
-8.121405189330208052e-02
-1.024525935834266488e-01
-1.403621128688446740e-01
-1.941326383296352320e-01
-2.173297132486889938e-01
-8.530210359970373524e-02
2.227850227424372498e-01
5.972434499221109805e-01
7.692100900532876651e-01
5.540927818751137934e-01
1.402136684305131109e-01
-1.777154196757962379e-01
-2.919537437684633918e-01
-2.500053438016082707e-01
-1.645299824302815794e-01
-1.092904558635124784e-01
-8.766174169532037208e-02
-7.972794290370428805e-02
-7.398077107032394184e-02
-6.551417909986666233e-02
-5.446763373911583245e-02
-3.997107972440597234e-02
-2.147608445810625030e-02
1.290124410668394388e-03
2.852156185872706251e-02
6.076062044153888314e-02
9.592721839593401634e-02
1.316557731831087819e-01
1.658023403428247056e-01
1.964446134933114652e-01
2.218819243313050471e-01
2.406352426319819937e-01
2.514471762490649853e-01
2.532819711147502040e-01
2.453304903457581843e-01
2.272063316446789882e-01
2.008772390749171688e-01
1.690416540137602286e-01
1.340855481018981277e-01
9.808239448631905777e-02
6.279407302800658897e-02
2.967141046807433499e-02
-1.471496275483527572e-04
-2.583567654567870894e-02
-4.686282695142277716e-02
-6.321896340946171755e-02
-7.560601078595602376e-02
-8.472241443678117656e-02
-9.119404306591162579e-02
-9.557418872540562882e-02
-9.834356681543006407e-02
-9.991031608424265353e-02
-1.006099986281945025e-01
-1.007055998917349149e-01
-1.003905265957564935e-01
-9.980079587762812066e-02
-9.900464591114943591e-02
-9.801042807880711027e-02
-9.688348863931291188e-02
-9.569306560545218221e-02
-9.446968929943001803e-02
-9.320693556416151382e-02
-9.185810490787846283e-02
-9.033580877615972338e-02
-8.851428532214675182e-02
-8.625759620422515650e-02
-8.324497245777263965e-02
-7.833515847888812555e-02
-7.030750414484845945e-02
-5.799659563557422320e-02
-4.029225543366440898e-02
-1.611689606780587758e-02
1.503769154672982521e-02
4.931298490647546828e-02
8.192298389373246781e-02
1.083668480218688834e-01
1.244020514296602375e-01
1.260302550670893418e-01
1.105648567843765112e-01
8.240794796658951205e-02
4.761950856901500662e-02
1.123424277913753593e-02
-2.274620745606528716e-02
-5.135449188371301460e-02
-7.160675560637162762e-02
-7.283576103483034581e-02
-7.481618235252168736e-02
-9.309243021096103021e-02
-1.272757866709544605e-01
-1.610444052026739348e-01
-1.621433106856282613e-01
-8.238439940856770449e-02
1.423535609302479799e-01
5.252136266085897232e-01
7.506995000472744817e-01
5.989331435460326647e-01
1.973651382109974095e-01
-1.487794170376252056e-01
-2.950753412451864732e-01
-2.751137167617837553e-01
-1.888785435576433858e-01
-1.276955212005607687e-01
-1.019066448057747709e-01
-9.324142344950100969e-02
-8.703569506154767987e-02
-7.940789411127056885e-02
-6.897417675356048994e-02
-5.533253011990445225e-02
-3.783386520714008411e-02
-1.617184001918722802e-02
9.616537056997873090e-03
3.917650073869725913e-02
7.203505763919057503e-02
1.062850628935654157e-01
1.397268597505727517e-01
1.702789499896833203e-01
1.959903357189349271e-01
2.150490771374991839e-01
2.257823186334974308e-01
2.265476780094667353e-01
2.160041416488952815e-01
1.960479316254903071e-01
1.689801876812513648e-01
1.369292888432159516e-01
1.018527419321040017e-01
6.554853977278071731e-02
2.964758462516000823e-02
-4.391960469174128676e-03
-3.528469318350493933e-02
-6.191797190612724489e-02
-8.345779188820735828e-02
-1.001780963167306082e-01
-1.128442281926451685e-01
-1.221535670068113755e-01
-1.287346591466491386e-01
-1.331654689808502157e-01
-1.359616888592664607e-01
-1.375673516494681781e-01
-1.383547870030570059e-01
-1.386246213564288343e-01
-1.386083528333101056e-01
-1.384758713444579903e-01
-1.383278371950422136e-01
-1.381932074742671934e-01
-1.380207291406330417e-01
-1.378158214114865443e-01
-1.377291904217267660e-01
-1.378181096898421498e-01
-1.380310039501584374e-01
-1.382074491528391680e-01
-1.380781724638850683e-01
-1.372650522651350236e-01
-1.352811181542630248e-01
-1.316032386984964941e-01
-1.246185009649636161e-01
-1.123999110719947347e-01
-9.388363458239437631e-02
-6.887362906523257500e-02
-3.803618517095036511e-02
-3.070307914631549735e-03
2.994878485873703894e-02
5.493147501603892757e-02
6.767010149647158246e-02
6.583763748763744872e-02
4.897396579102331754e-02
1.975858187499962906e-02
-1.529930846920340808e-02
-5.059470109453941683e-02
-8.207169680952987323e-02
-1.072235013781781543e-01
-1.227361649170284202e-01
-1.295885790692132000e-01
-1.447739396815292401e-01
-1.763024703432703177e-01
-2.213781678114406515e-01
-2.663954541197586789e-01
-2.747910320311502952e-01
-1.252352435848586854e-01
2.089855612015501241e-01
5.768611929725572240e-01
6.845909730391801506e-01
4.167857617666363423e-01
1.728814037213745498e-03
-2.805139701564718369e-01
-3.573479839285877979e-01
-2.978468208506717119e-01
-2.159219780497027008e-01
-1.709865177070260533e-01
-1.546686395292670990e-01
-1.487032530366586558e-01
-1.430923746073413938e-01
-1.343903175344307865e-01
-1.229479477148887057e-01
-1.077775422025856467e-01
-8.839820857980904001e-02
-6.467807121979682328e-02
-3.681794108747991207e-02
-4.838956767862600053e-03
2.977170026112429049e-02
6.455535781273868956e-02
9.726871358124623834e-02
1.258818235238942096e-01
1.485794426355880049e-01
1.637620260534413119e-01
1.700513534667566495e-01
1.663424406991116378e-01
1.515922811080996080e-01
1.275213036749817674e-01
9.695320335811671852e-02
6.240804913350189720e-02
2.610228399487192485e-02
-1.005127504644810418e-02
-4.444343696147044082e-02
-7.576863670347151747e-02
-1.030311751810152193e-01
-1.256078383556090139e-01
-1.432260431739386386e-01
-1.562031599118445246e-01
-1.653601962846582007e-01
-1.714734098390624795e-01
-1.752387905434585336e-01
-1.772688711299739706e-01
-1.780944899385061841e-01
-1.781666208344369062e-01
-1.778520682165688482e-01
-1.773874669367343782e-01
-1.768970894773846392e-01
-1.764102091760805513e-01
-1.758960087903353176e-01
-1.754499391819137055e-01
-1.751333742483958400e-01
-1.749540751049112053e-01
-1.748661900841338435e-01
-1.747702547362855463e-01
-1.745144253130599121e-01
-1.739084267422069396e-01
-1.727185809948027229e-01
-1.706793304603434203e-01
-1.674601569731724582e-01
-1.612001167623405840e-01
-1.501611809772794848e-01
-1.332381468520371370e-01
-1.099573536437905702e-01
-8.047472122143634055e-02
-4.564557487082367832e-02
-1.019793478109536945e-02
1.935412318052845068e-02
3.814109950143659139e-02
4.299258723663412080e-02
3.243105155919938365e-02
7.681555514635456279e-03
-2.517235365216370993e-02
-6.023718306512852033e-02
-9.300004231019078083e-02
-1.203266363943426148e-01
-1.406871154187278317e-01
-1.544684830538650411e-01
-1.640337866185182791e-01
-1.780544055175486973e-01
-2.114391312979959081e-01
-2.641166592407365177e-01
-2.888525025844369543e-01
-1.991264702229514627e-01
7.371874429374371263e-02
4.587869548026183297e-01
6.772618772294479728e-01
5.089164139117250407e-01
1.031484415962049955e-01
-2.349966541287618060e-01
-3.693050074336680644e-01
-3.420667009418882354e-01
-2.591290805890381077e-01
-1.967715939636779654e-01
-1.721109615592083530e-01
-1.627976864791037537e-01
-1.557885614512113936e-01
-1.474296580507588605e-01
-1.364470107129247822e-01
-1.221091590573271241e-01
-1.039056694067943404e-01
-8.154492987973820106e-02
-5.493085905723090606e-02
-2.392357341793779207e-02
1.008312681697164440e-02
4.523393346496006051e-02
7.964555477227142077e-02
1.114148599517069682e-01
1.386548796912365211e-01
1.594959012459143677e-01
1.720854684379963806e-01
1.746035023456261048e-01
1.666105711287815816e-01
1.495403254739054444e-01
1.250188731235446771e-01
9.476149856029951468e-02
6.061554099416921471e-02
2.455370516852757590e-02
-1.136347590079232230e-02
-4.498888350802284636e-02
-7.447959911922423515e-02
-9.948533409723610277e-02
-1.200089106112290499e-01
-1.361811930413418803e-01
-1.482678740926604843e-01
-1.566714297652671284e-01
-1.619637756349553426e-01
-1.648823705318797073e-01
-1.662367778329864043e-01
-1.664231927913708831e-01
-1.657423786903172158e-01
-1.644685530411076624e-01
-1.628256415504949761e-01
-1.609872781207023207e-01
-1.590768048494278220e-01
-1.571666066261174499e-01
-1.552652889796277691e-01
-1.532486788389801069e-01
-1.512164810870189890e-01
-1.493278826870274856e-01
-1.476008633314767338e-01
-1.459122268223227992e-01
-1.439985718833158290e-01
-1.414564782765449780e-01
-1.377413874358013046e-01
-1.321879062148106632e-01
-1.239683312347436700e-01
-1.108267581052220924e-01
-9.120572306266035156e-02
-6.483394797124014675e-02
-3.272634032282673716e-02
2.860539652960416256e-03
3.819373784501028241e-02
6.632509964204114095e-02
8.195255177722395035e-02
8.249824316383792822e-02
6.810542999720890778e-02
4.160552206678558990e-02
7.966548327780167971e-03
-2.666293727600777333e-02
-5.760699047345377299e-02
-8.212826263845776631e-02
-9.942878274503086367e-02
-1.105798649888377755e-01
-1.193555719119080843e-01
-1.351492334015708119e-01
-1.725826018998782019e-01
-2.242406574413269571e-01
-2.323004456966581144e-01
-1.091593181909391030e-01
1.977077357620071751e-01
5.787745765946125109e-01
7.356323757105792671e-01
5.076195245969966630e-01
9.458706204762683256e-02
-2.152633112216518763e-01
-3.205183649205403107e-01
-2.738255596100674372e-01
-1.891314930779158521e-01
-1.329903635581540511e-01
-1.099617286653622877e-01
-1.012612028290374722e-01
-9.463705528682560264e-02
-8.483270156740486956e-02
-7.258853100269140046e-02
-5.728875030270461077e-02
-3.821454990579981059e-02
-1.509823559146701057e-02
1.202297006439948315e-02
4.298004011643996591e-02
7.699408652338771142e-02
1.120373671637330537e-01
1.461098447633780162e-01
1.772990961751105821e-01
2.037803123785199289e-01
2.238153177724375997e-01
2.357232158622334650e-01
2.377308560614756483e-01
2.287166989088222080e-01
2.106150471349640951e-01
1.855788393041924722e-01
1.556113705682313220e-01
1.225659220377004061e-01
8.814539708292112863e-02
5.390297220244016918e-02
2.124314264399178309e-02
-8.547042102487209178e-03
-3.429108123127166258e-02
-5.512407485813767410e-02
-7.138483281070888420e-02
-8.379263110618048738e-02
-9.299846815015751222e-02
-9.958709577485651276e-02
-1.040770192390916143e-01
-1.069204972282977034e-01
-1.085039053594567676e-01
-1.091606511114969896e-01
-1.091746667821635874e-01
-1.087647121572270226e-01
-1.080833004490650562e-01
-1.071502724567601206e-01
-1.059764101919610096e-01
-1.047018856342287474e-01
-1.034105489219577512e-01
-1.021288390872943236e-01
-1.008262198226486939e-01
-9.942205897000128134e-02
-9.778784395987645539e-02
-9.573854035221054937e-02
-9.303196147488465573e-02
-8.937561546300495929e-02
-8.448224477758305151e-02
-7.652705204616155887e-02
-6.370222741897557661e-02
-4.493463259781723534e-02
-1.988582245497591897e-02
1.104703137600750867e-02
4.691468017463732570e-02
8.343508409851635443e-02
1.134830452944442791e-01
1.319969370887371374e-01
1.361670167207810478e-01
1.254333842416113509e-01
1.014687064519720627e-01
6.840485868401181835e-02
3.262616654325700000e-02
-7.402325140970717268e-04
-2.842858777838779688e-02
-4.906527291755058418e-02
-6.317132626743739154e-02
-7.219427604441991386e-02
-8.617263604636067609e-02
-1.187927650751430669e-01
-1.698662381733304361e-01
-2.090076310452234076e-01
-1.336348466009087133e-01
1.105289931917467078e-01
4.910607559050850779e-01
7.614256050475695092e-01
6.686936915344576793e-01
2.833928660596822247e-01
-8.488038456854885005e-02
-2.591790920567622614e-01
-2.509458591708028097e-01
-1.763182386294914472e-01
-1.109789540324158663e-01
-8.045719047207008923e-02
-6.710484444760821121e-02
-5.959674526238074171e-02
-5.338034838761684248e-02
-4.517617449554090642e-02
-3.297780945934774416e-02
-1.605190435321945247e-02
5.062175357237159480e-03
2.989922433416269953e-02
5.855591439270047688e-02
9.018218425035134933e-02
1.235225236381038705e-01
1.569199995723419283e-01
1.883166549491873953e-01
2.153059792260212657e-01
2.358158521125044149e-01
2.480286460913229685e-01
2.507722200599986628e-01
2.436492896763937099e-01
2.270387093570825632e-01
2.020946400002256726e-01
1.707459836532082276e-01
1.355095723343825720e-01
9.848613222262926625e-02
6.190948098673400291e-02
2.759885826726811431e-02
-3.130610096561789631e-03
-2.946791206706159127e-02
-5.110614940796301409e-02
-6.823940414625384587e-02
-8.122431417771393269e-02
-9.065857985380661177e-02
-9.726166682311625233e-02
-1.016687691328449078e-01
-1.044308092288405848e-01
-1.060144379555772731e-01
-1.068014604183522842e-01
-1.070865443598591066e-01
-1.070791935773644787e-01
-1.068958345663838932e-01
-1.066042726663122830e-01
-1.062911654497810943e-01
-1.060125105353185021e-01
-1.057919494824969553e-01
-1.056207677919347721e-01
-1.054578949052938780e-01
-1.052299042052810690e-01
-1.048310130156487469e-01
-1.041230826011931981e-01
-1.029485679823206323e-01
-1.010972126291519030e-01
-9.732261041353289233e-02
-9.025222388857846723e-02
-7.868579938414672903e-02
-6.159536700687266025e-02
-3.812524064012120378e-02
-7.401363634021114468e-03
2.797784767329084335e-02
6.192727983966590799e-02
8.931938682145033892e-02
1.061108066483482243e-01
1.093387277907925531e-01
9.714769934970125809e-02
7.113628093027596355e-02
3.751737650207834229e-02
1.909415344089334526e-03
-3.126679415188737127e-02
-5.878806448112802036e-02
-7.963360040515475580e-02
-9.360798048021032325e-02
-1.037307173318323950e-01
-1.188546051088077982e-01
-1.534328832232787765e-01
-2.077788503879123561e-01
-2.329693072973988976e-01
-1.434600729096451588e-01
1.295651422541214404e-01
5.127161321087251311e-01
7.320613285506991641e-01
5.671165109284496131e-01
1.590634869457243084e-01
-1.798633753099278254e-01
-3.148256583926876684e-01
-2.824966245877028048e-01
-1.988765350007744848e-01
-1.421649093625936000e-01
-1.192767395571352612e-01
-1.112842241812088129e-01
-1.066502618326894414e-01
-9.906595973971649149e-02
-8.742687936236941126e-02
-7.289540448842370124e-02
-5.434366128418177677e-02
-3.150682772507699958e-02
-4.530312547711790733e-03
2.603028530319373077e-02
5.937390444369172737e-02
9.383199626911666036e-02
1.269706385329919252e-01
1.565413321566834493e-01
1.805156269981858519e-01
1.971137553423996658e-01
2.047615166189185876e-01
2.018396681827830386e-01
1.881402247395561611e-01
1.657833820648941248e-01
1.368831756671938238e-01
1.034596676524021930e-01
6.743894672411269997e-02
3.065308015646582909e-02
-5.175235801708043953e-03
-3.845463689653622064e-02
-6.769328816776383484e-02
-9.170993987273413917e-02
-1.107415043522015363e-01
-1.254732537167057849e-01
-1.365487076280236522e-01
-1.445746911657331546e-01
-1.501206289993728404e-01
-1.537173131525190473e-01
-1.558484564552264640e-01
-1.569377477190163073e-01
-1.573669090680687443e-01
-1.574686527730286556e-01
-1.573456731666094677e-01
-1.570489038059138254e-01
-1.566402745700396504e-01
-1.561605580494398182e-01
-1.556293695459229909e-01
-1.550451826361816665e-01
-1.543936176324480491e-01
-1.536610924631338637e-01
-1.528164544418274262e-01
-1.518134486703492381e-01
-1.508083518441434290e-01
-1.490401831465200944e-01
-1.453601805095020294e-01
-1.386736567779792706e-01
-1.279405288638557348e-01
-1.121768708195566983e-01
-9.044383103730120610e-02
-6.188916800204106311e-02
-2.836021405052393737e-02
4.948325860656705572e-03
3.295065805808923554e-02
5.091233328389687535e-02
5.445081373521235696e-02
4.155406997562185317e-02
1.597517954486420491e-02
-1.745170446541515971e-02
-5.373069392164035035e-02
-8.772712847915402345e-02
-1.159816318905990684e-01
-1.364902491574785659e-01
-1.490294591009814484e-01
-1.582081195599781831e-01
-1.734759018456759339e-01
-2.206446481911643054e-01
-2.904057313667861573e-01
-2.870042392841821166e-01
-1.531858378234691453e-01
1.230470450041853542e-01
4.958727236432014518e-01
6.809672128455778184e-01
4.742714397117963054e-01
6.202752843036853092e-02
-2.591233069666655786e-01
-3.724301939909042680e-01
-3.312075426781719845e-01
-2.504601720277406796e-01
-1.958452729709388163e-01
-1.745228009470542740e-01
-1.671335005772639215e-01
-1.619430691769938313e-01
-1.534288200820829173e-01
-1.418544078882464088e-01
-1.270990755081742585e-01
-1.083059867266166071e-01
-8.524669043799859569e-02
-5.806374037851174535e-02
-2.725981323462539282e-02
6.675654644304897245e-03
4.171623293228222951e-02
7.537572475885026546e-02
1.054420176983019986e-01
1.299770837695928272e-01
1.473169794363007046e-01
1.560718456067320958e-01
1.551259076338462883e-01
1.431869069260550686e-01
1.214008624401693159e-01
9.265901641676839440e-02
5.954015212540667012e-02
2.430269053505194204e-02
-1.111530968581241757e-02
-4.509615216933919590e-02
-7.634252583430496675e-02
-1.038782870377717438e-01
-1.270486518690336075e-01
-1.455192612043317291e-01
-1.593051477319862297e-01
-1.690199606509050489e-01
-1.754569504238499833e-01
-1.793267376773399202e-01
-1.812562801197119267e-01
-1.817888725411425099e-01
-1.813841468136315471e-01
-1.804180718910076142e-01
-1.791829538089276252e-01
-1.778874355609733060e-01
-1.765686839548009646e-01
-1.752240820464303905e-01
-1.740015799528451812e-01
-1.729836989304470163e-01
-1.721843696454927741e-01
-1.715489321740975015e-01
-1.709540771193810427e-01
-1.702048557751390523e-01
-1.690332625465374439e-01
-1.671023458301588438e-01
-1.640276096813827744e-01
-1.594503900728240220e-01
-1.528110296436290816e-01
-1.420056249829619033e-01
-1.253634607323496908e-01
-1.022316719269470431e-01
-7.297524399560670338e-02
-3.895402655430161426e-02
-2.786883957191727337e-03
2.859643265865972200e-02
4.912689779309672294e-02
5.528478634730653318e-02
4.601944879201300131e-02
2.271514184604744510e-02
-1.069269445462270318e-02
-4.763342202503152711e-02
-8.257678938514627365e-02
-1.118887000268921350e-01
-1.338329511993621990e-01
-1.484766105626457444e-01
-1.581582958503861547e-01
-1.703194917369959538e-01
-1.966741075767363678e-01
-2.476293019911117721e-01
-2.812010589425032459e-01
-2.177868024684997683e-01
2.260463429475216557e-02
3.954520033785921540e-01
6.757847085824947309e-01
5.752078707991806761e-01
2.007369414354908399e-01
-1.698674021251458111e-01
-3.481359151323121237e-01
-3.476196155395024912e-01
-2.638626044080817357e-01
-1.938167437853477171e-01
-1.613224388527792486e-01
-1.503249292705561291e-01
-1.431437998989712468e-01
-1.349957462456386204e-01
-1.239392680706468686e-01
-1.097466165476225636e-01
-9.173978251690997898e-02
-6.955566297101428708e-02
-4.318672498703736429e-02
-1.298100572674774564e-02
2.047827432654075047e-02
5.618949920091138167e-02
9.176432629409030095e-02
1.249057751222042850e-01
1.535654401206538178e-01
1.759699007780266833e-01
1.905978135158528097e-01
1.961697084326355367e-01
1.915057876753448740e-01
1.764419491369945414e-01
1.532418134675126442e-01
1.241925554524957731e-01
9.140475018085378323e-02
5.681148896705665724e-02
2.216104147191134272e-02
-1.101308060950043945e-02
-4.136696572477323308e-02
-6.773435003599570514e-02
-8.920918617473364010e-02
-1.059361247158299851e-01
-1.186063299562813145e-01
-1.278751927736278549e-01
-1.343567541171204749e-01
-1.386237050076842836e-01
-1.411980829606057919e-01
-1.425102289227648533e-01
-1.429321816834228098e-01
-1.427946172702502514e-01
-1.423517326668359284e-01
-1.416492930704459918e-01
-1.407189745259783686e-01
-1.395812174439158837e-01
-1.382399366152339548e-01
-1.366818509556507744e-01
-1.348858952435784131e-01
-1.328678453428859818e-01
-1.306451929337008599e-01
-1.282181030864031346e-01
-1.255865108626031679e-01
-1.226248554623989573e-01
-1.188825260236525128e-01
-1.136915825540634334e-01
-1.061724079199316551e-01
-9.523370784613845175e-02
-7.956652503704333967e-02
-5.752406713808158600e-02
-2.726531082772135420e-02
7.654734731244840565e-03
4.264264992890654665e-02
7.348921582603894220e-02
9.636941414642601067e-02
1.078422520548443231e-01
1.048503096066721041e-01
8.590939206070009881e-02
5.620539620555949079e-02
2.203679374690931114e-02
-1.163135192400077678e-02
-4.115606543031867515e-02
-6.421644694913627993e-02
-7.558328475187438278e-02
-8.208399807166588680e-02
-9.945025606725296785e-02
-1.332391218070933525e-01
-1.786872932538511316e-01
-2.207090244305566773e-01
-2.128183086695547566e-01
-4.628561882228513641e-02
2.896343533374539647e-01
6.543301808374822892e-01
7.394447907829143629e-01
4.522628687701791272e-01
4.067781422113701112e-02
-2.356563253894999599e-01
-3.063089621957730269e-01
-2.469054519919723356e-01
-1.661645554632436572e-01
-1.175044995357504563e-01
-9.775616722469711306e-02
-8.971716360512839439e-02
-8.368074983679529844e-02
-7.440123225503264548e-02
-6.109396237076785557e-02
-4.496770078753492550e-02
-2.487446083646819781e-02
-5.488377843896577631e-04
2.784679278963805502e-02
5.973714413417237357e-02
9.433486962377422846e-02
1.301413009901143947e-01
1.646313331261891333e-01
1.955255261223615426e-01
2.208329941848689304e-01
2.388524967732523208e-01
2.481715316796071769e-01
2.476725718506525287e-01
2.359055891702583063e-01
2.141544970648470714e-01
1.852857490316753841e-01
1.518563451863108871e-01
1.161138322627235375e-01
7.999630361314624682e-02
4.513239920816522477e-02
1.284130563667660457e-02
-1.586724389402536378e-02
-4.029996957247537759e-02
-6.012830174547851431e-02
-7.535198899718829890e-02
-8.634325020044381072e-02
-9.385404053273288527e-02
-9.859884868019465343e-02
-1.012098490215373181e-01
-1.022375326755273622e-01
-1.021541064335847737e-01
-1.013510477471658011e-01
-1.001350671660883596e-01
-9.871019215506952882e-02
-9.718806171113443526e-02
-9.561112898686859041e-02
-9.405552720224232000e-02
-9.260134724709517817e-02
-9.129527718983475315e-02
-9.015054307745047624e-02
-8.914690893550765438e-02
-8.823067676815093963e-02
-8.731212389273888819e-02
-8.624572984112897911e-02
-8.486792187773320451e-02
-8.270438177746064490e-02
-7.856138988750981100e-02
-7.120652836935047192e-02
-5.943096646133312622e-02
-4.204881152992075155e-02
-1.784779613984614419e-02
1.358666965085729601e-02
4.832592454195484832e-02
8.170762955808069661e-02
1.092465005407845524e-01
1.266584494166296260e-01
1.298607501318193025e-01
1.161091023459469435e-01
8.980503385549229445e-02
5.691458121834126749e-02
2.236362759229064412e-02
-9.962097265098585064e-03
-3.721256973268610713e-02
-5.737118822267864987e-02
-6.858769462928561433e-02
-8.027889563496282133e-02
-1.014195054958609010e-01
-1.364948659898893024e-01
-1.855150998787316596e-01
-2.204379355348045078e-01
-1.293982708452662000e-01
1.359238145700514544e-01
5.163257163742521749e-01
7.607239269941391546e-01
6.268795915962098730e-01
2.291017923285889879e-01
-1.242680821503649446e-01
-2.763261419717867873e-01
-2.532823757597973402e-01
-1.739546874486222194e-01
-1.131641209883026133e-01
-8.731135510000756494e-02
-7.583370712188373941e-02
-7.005773338043605469e-02
-6.493382766728265920e-02
-5.701973675377937367e-02
-4.448102712220219218e-02
-2.709108496576060482e-02
-5.896520483378873100e-03
1.944233705028854467e-02
4.871046319376561018e-02
8.104396525719562150e-02
1.151207668927477501e-01
1.490931709097899627e-01
1.806178645936016847e-01
2.074104457799025025e-01
2.272083685430494049e-01
2.381628677385409509e-01
2.392441171427253377e-01
2.302412294528275449e-01
2.117622562869496128e-01
1.852341881840632309e-01
1.527863578875106598e-01
1.165361871679626571e-01
7.903644344751423190e-02
4.247420086114686577e-02
8.532530596967213485e-03
-2.160949910370034421e-02
-4.727682294645686040e-02
-6.829452059563066724e-02
-8.470256415790811122e-02
-9.701610750945509343e-02
-1.059275921823444599e-01
-1.120947287599335235e-01
-1.161265131235304643e-01
-1.185534694012814888e-01
-1.198270595796299409e-01
-1.203196835033182033e-01
-1.203246788753930541e-01
-1.200563212572020033e-01
-1.196145726730578479e-01
-1.190691122652618589e-01
-1.185744473145742134e-01
-1.182180845674745406e-01
-1.180240500954664179e-01
-1.179693553056086197e-01
-1.179843582033237581e-01
-1.179527633923979774e-01
-1.177116220749815506e-01
-1.170513122741702189e-01
-1.157153067267607804e-01
-1.134806382662693902e-01
-1.088356982880641088e-01
-1.000085048155181788e-01
-8.576115269376191619e-02
-6.537967229709235051e-02
-3.867378449450840916e-02
-5.794316375451224674e-03
2.960664401046946351e-02
6.051857855373558165e-02
8.161138713484329676e-02
8.942791559656894373e-02
8.238478591003280116e-02
6.078552885962380803e-02
2.825038693095487108e-02
-8.379906475476496183e-03
-4.360036696148236746e-02
-7.373600850446103416e-02
-9.694184345730476327e-02
-1.131676437320672940e-01
-1.240009792863780713e-01
-1.374230485249286204e-01
-1.641094244098633415e-01
-2.145343115323838090e-01
-2.566625833768750309e-01
-2.082684916170496614e-01
1.068619034561673307e-02
3.774222067657722057e-01
6.732000546629905990e-01
6.135176786987815989e-01
2.476469600649403024e-01
-1.328284343173409265e-01
-3.236992076454808243e-01
-3.307839862977913770e-01
-2.488642053826263800e-01
-1.814380739206948867e-01
-1.512561758396200884e-01
-1.422709673338096725e-01
-1.367708359866152967e-01
-1.301072601472412493e-01
-1.204656248904694416e-01
-1.075132593026146416e-01
-9.051439546825446048e-02
-6.910951603602762117e-02
-4.335371368728878350e-02
-1.368842497588629997e-02
1.921479214928002027e-02
5.404820214057741434e-02
8.827670600357140351e-02
1.195462171359999159e-01
1.457636702198722989e-01
1.650970212215060184e-01
1.759767321325053369e-01
1.771228803917136441e-01
1.672946976521872964e-01
1.475981920864475605e-01
1.205024605174064706e-01
8.829162136338898625e-02
5.306407985025807239e-02
1.673252565713043843e-02
-1.897620156102879443e-02
-5.252118492112226728e-02
-8.254811655115040780e-02
-1.079084615209210257e-01
-1.281274010169853594e-01
-1.438118026217997392e-01
-1.556497911899300535e-01
-1.642833985703552879e-01
-1.703085636064239350e-01
-1.742751321358513295e-01
-1.766868569907449893e-01
-1.780013979975857974e-01
-1.786295451333020645e-01
-1.789121570275510609e-01
-1.789784456621192898e-01
-1.788841648307785692e-01
-1.786866483864742172e-01
-1.784221229874503878e-01
-1.781057080972473505e-01
-1.777314205883066545e-01
-1.772726134998753311e-01
-1.766823385195551432e-01
-1.758934495325776837e-01
-1.748371773041632604e-01
-1.738690734821669026e-01
-1.724497946517889735e-01
-1.690426691714438379e-01
-1.623593546219979922e-01
-1.513638125465845974e-01
-1.352723084506095574e-01
-1.135534118017323679e-01
-8.592799602993131391e-02
-5.258620063022757113e-02
-1.742259609168854417e-02
1.343069553532005508e-02
3.479519955523897867e-02
4.253076509252828180e-02
3.399272888990762659e-02
1.143684984486142281e-02
-2.038739353804428639e-02
-5.633270906125971422e-02
-9.088872862825882193e-02
-1.200953864991369385e-01
-1.416371348621169868e-01
-1.556539201575219689e-01
-1.657064578879226535e-01
-1.787237671463125233e-01
-2.074368780777658683e-01
-2.599089308702897672e-01
-2.944927348407357925e-01
-2.274338090493273623e-01
2.766079241224597696e-02
4.084945358529374348e-01
6.620604990782655852e-01
5.370583656728654676e-01
1.387176518838023065e-01
-2.188169847861295425e-01
-3.822776584338995476e-01
-3.676857133983185144e-01
-2.831416999691507286e-01
-2.176702152245965638e-01
-1.892198105514474038e-01
-1.785776282891125832e-01
-1.728223659035255377e-01
-1.650048461437082503e-01
-1.538910379597012990e-01
-1.399615267783252126e-01
-1.222073580709784335e-01
-1.002671348540938867e-01
-7.413613939994524726e-02
-4.416633323671557282e-02
-1.080429744643343105e-02
2.472293587903239692e-02
5.987700133632408578e-02
9.234258706674626505e-02
1.200893601484957496e-01
1.413729340525615441e-01
1.547348686426952002e-01
1.590026701755014871e-01
1.532134439416953375e-01
1.367858147999752028e-01
1.120154335307825266e-01
8.149206664539307421e-02
4.753503316845171522e-02
1.219893348559734220e-02
-2.275045429262193691e-02
-5.583787141181216496e-02
-8.587857847365273911e-02
-1.119783554358395466e-01
-1.335335016122118634e-01
-1.502761585835811486e-01
-1.626616245257313520e-01
-1.714171580434467046e-01
-1.772183387069637406e-01
-1.806942097691200955e-01
-1.823995312123263823e-01
-1.828126980499760745e-01
-1.823357403264343479e-01
-1.812943231170404124e-01
-1.799377465271287391e-01
-1.784388167502135580e-01
-1.768812425876682692e-01
-1.752856775002347434e-01
-1.737759239567800151e-01
-1.724109466115052447e-01
-1.711940886780947690e-01
-1.700756448604043292e-01
-1.689528613524545197e-01
-1.676699358384354244e-01
-1.660180174927037566e-01
-1.637352069797885501e-01
-1.605271192698993488e-01
-1.559790369352363482e-01
-1.483288396884860916e-01
-1.359848013022932622e-01
-1.179001824548676636e-01
-9.356969880527345185e-02
-6.302952099350113413e-02
-2.678031083168140244e-02
1.014821955809227724e-02
4.114831430310531002e-02
6.139511135103523087e-02
6.785825306079054653e-02
5.933145547268624947e-02
3.647321896044490586e-02
3.782510469042680342e-03
-3.192864475928327422e-02
-6.549190029171836347e-02
-9.356374351321139482e-02
-1.146254956263715180e-01
-1.289833116515004263e-01
-1.383505989872255704e-01
-1.505906187872057267e-01
-1.790396507749386357e-01
-2.292814772643451127e-01
-2.690179100586704286e-01
-2.098338391096004896e-01
1.430260908837844430e-02
3.983275138069294341e-01
6.783828390797831398e-01
6.252700559026580507e-01
2.530471960537802878e-01
-1.275209851133873862e-01
-3.296968114253740478e-01
-3.389720209345907231e-01
-2.643435438717297581e-01
-1.913822335957904297e-01
-1.539111708135327272e-01
-1.397314938397363204e-01
-1.325104104619991285e-01
-1.241024186075678215e-01
-1.130339659287210446e-01
-9.922623383250081530e-02
-8.184783286881172626e-02
-6.052484884364053158e-02
-3.515022932415559631e-02
-5.751047877749373635e-03
2.770321265486482692e-02
6.319490344467090792e-02
9.852669619065516915e-02
1.316815484831936334e-01
1.608219179956448808e-01
1.842903468424465785e-01
2.006135292302485551e-01
2.085051885883607570e-01
2.068601482610850084e-01
1.945847830379344445e-01
1.729185509256324360e-01
1.445983445068791118e-01
1.120720657924740293e-01
7.749202003632268965e-02
4.271491573529643399e-02
9.301789499914878134e-03
-2.148952095540972856e-02
-4.871079945074215795e-02
-7.171093926968198640e-02
-9.013368281383811464e-02
-1.040056692673648059e-01
-1.139848186156598858e-01
-1.208006745298307177e-01
-1.251064247012083908e-01
-1.274779263734268919e-01
-1.284142317022999857e-01
-1.283338590820604919e-01
-1.275708238103974712e-01
-1.263819798682936646e-01
-1.249479595308540802e-01
-1.233731733673068820e-01
-1.216828659413811131e-01
-1.199243539030720729e-01
-1.181808493780093089e-01
-1.164978309251644140e-01
-1.148819607766543710e-01
-1.133009851819835878e-01
-1.116836336778095490e-01
-1.099197962246699911e-01
-1.078605471960631113e-01
-1.053266906519420010e-01
-1.020258934478972951e-01
-9.676442692109017696e-02
-8.822892671215144811e-02
-7.522711654579812557e-02
-5.668787862942336470e-02
-3.166458621525123501e-02
4.850619911659183390e-04
3.621755302402503846e-02
7.057443955478513720e-02
9.899476093874354232e-02
1.173150432149339395e-01
1.217692991061475744e-01
1.094931773996711544e-01
8.400293888439826218e-02
5.150550810186316913e-02
1.711561798187696132e-02
-1.515936235939226509e-02
-4.243310060396988936e-02
-6.294237284487279316e-02
-7.671334299155477265e-02
-8.655899221364830864e-02
-9.955669040800148306e-02
-1.280488759806784060e-01
-1.802368299924222983e-01
-2.146004916062010381e-01
-1.530541095283413366e-01
7.948701037481165077e-02
4.559382678073926609e-01
7.472460898218470371e-01
6.854789224588000440e-01
3.156878912716328256e-01
-6.391046597989301359e-02
-2.592347247883906025e-01
-2.655231507737945695e-01
-1.834814958729669432e-01
-1.120266693649116241e-01
-8.048021244756572989e-02
-6.891135672220846664e-02
-6.258639231483191512e-02
-5.455141425120245413e-02
-4.409967846735003000e-02
-3.047549044794023096e-02
-1.309392804165676431e-02
8.385100102361212754e-03
3.419545565072917848e-02
6.419668697778883881e-02
9.710012796442148153e-02
1.313912867911597171e-01
1.654020349209591179e-01
1.973106070991064165e-01
2.251416013532597515e-01
2.467659789933726588e-01
2.599025444857024914e-01
2.628578784888215281e-01
2.558652591711083613e-01
2.397676863909608547e-01
2.157672527697306053e-01
1.854042425064949540e-01
1.505531744346966516e-01
1.134228020220150318e-01
7.655611337044694598e-02
4.244329972000777246e-02
1.205337602314429657e-02
-1.405855817390167829e-02
-3.558741810056355315e-02
-5.250287527433263046e-02
-6.506900164712788037e-02
-7.381815473815277195e-02
-7.954575040868876179e-02
-8.318662185490637018e-02
-8.520067126183260287e-02
-8.603512440516689064e-02
-8.608671996988929986e-02
-8.567693880858597011e-02
-8.505199912630369286e-02
-8.437883425382006197e-02
-8.373778321944240488e-02
-8.314340858778056231e-02
-8.265793451852129770e-02
-8.235726818285411810e-02
-8.227700601046042395e-02
-8.241212412817330857e-02
-8.271686960151541923e-02
-8.310163468084710847e-02
-8.343247411635729138e-02
-8.354303021019043873e-02
-8.299079481978556549e-02
-8.050949882665157931e-02
-7.477491385761313170e-02
-6.451256812531515339e-02
-4.849774642825829124e-02
-2.552612828613043741e-02
5.001139127328222550e-03
3.908876358909506993e-02
7.188535584951906421e-02
9.885153607816866972e-02
1.156832149428424772e-01
1.184035369508071589e-01
1.043251975590736291e-01
7.791908884875432817e-02
4.545504378408046775e-02
1.196862178424750421e-02
-1.873997341369565070e-02
-4.411038240810021688e-02
-6.279704597513237341e-02
-7.330721263715370140e-02
-8.481196396472544252e-02
-1.072784502159407488e-01
-1.455032483937548915e-01
-2.006978589371746224e-01
-2.289795552691555880e-01
-9.651708606887565711e-02
2.174225954184477172e-01
5.902138277597511751e-01
7.525698655000337967e-01
5.358456713422876661e-01
1.188360431487030799e-01
-1.858629049316392334e-01
-2.837367583467855225e-01
-2.319638307747305672e-01
-1.475579875584863976e-01
-9.880579648770267120e-02
-8.090059322809861619e-02
-7.414676303223466380e-02
-6.792134916202290096e-02
-5.925773789432890043e-02
-4.796763006094962450e-02
-3.318960572397163661e-02
-1.447688686408396715e-02
8.379567020708678787e-03
3.540805115749531828e-02
6.579526727876026937e-02
9.819220516283022615e-02
1.309873193006229064e-01
1.623065288255143845e-01
1.900098743650011912e-01
2.116825788934618424e-01
2.250086292252544418e-01
2.288495779671323727e-01
2.227785044796145864e-01
2.070662566734477461e-01
1.826837423442377317e-01
1.513019268833245556e-01
1.152915781831353736e-01
7.743850660946074993e-02
3.981136820586304165e-02
4.300230787635565648e-03
-2.767901646817377131e-02
-5.521941872138674823e-02
-7.792295546859082100e-02
-9.590054054317823096e-02
-1.097379938704234892e-01
-1.199789884475437607e-01
-1.272894698985912454e-01
-1.323298357935159542e-01
-1.356656632106896521e-01
-1.377717328227400784e-01
-1.390280182244414686e-01
-1.397183400771734862e-01
-1.400301882948569443e-01
-1.400440740790627747e-01
-1.398634492155784170e-01
